PPG,20050427,0.48181818181818177,0.48181818181818177,0.38181818181818178,0.40909090909090905,826678,0
PPG,20050428,0.40909090909090905,0.42727272727272723,0.404545454545454505,0.41818181818181814,773600,0
PPG,20050429,0.40909090909090905,0.431818181818181775,0.40909090909090905,0.431818181818181775,177226,0
PPG,20050502,0.449999999999999955,0.4545454545454545,0.44545454545454541,0.44545454545454541,213500,0
PPG,20050503,0.449999999999999955,0.4545454545454545,0.440909090909090865,0.440909090909090865,173111,0
PPG,20050504,0.449999999999999955,0.449999999999999955,0.440909090909090865,0.44545454545454541,36199,0
PPG,20050505,0.44545454545454541,0.44545454545454541,0.422727272727272685,0.422727272727272685,180000,0
PPG,20050506,0.422727272727272685,0.43636363636363632,0.41818181818181814,0.43636363636363632,8100,0
PPG,20050509,0.42727272727272723,0.43636363636363632,0.422727272727272685,0.422727272727272685,30054,0
PPG,20050510,0.422727272727272685,0.422727272727272685,0.413636363636363595,0.413636363636363595,169326,0
PPG,20050511,0.41818181818181814,0.41818181818181814,0.413636363636363595,0.413636363636363595,123130,0
PPG,20050512,0.41818181818181814,0.42727272727272723,0.41818181818181814,0.41818181818181814,158001,0
PPG,20050513,0.413636363636363595,0.413636363636363595,0.40909090909090905,0.40909090909090905,161800,0
PPG,20050516,0.41818181818181814,0.41818181818181814,0.413636363636363595,0.413636363636363595,31500,0
PPG,20050517,0.40909090909090905,0.413636363636363595,0.40909090909090905,0.413636363636363595,132412,0
PPG,20050518,0.40909090909090905,0.40909090909090905,0.404545454545454505,0.404545454545454505,41050,0
PPG,20050519,0.40909090909090905,0.40909090909090905,0.39999999999999996,0.404545454545454505,53500,0
PPG,20050520,0.404545454545454505,0.404545454545454505,0.404545454545454505,0.404545454545454505,19786,0
PPG,20050523,0.39999999999999996,0.39999999999999996,0.395454545454545415,0.395454545454545415,53500,0
PPG,20050524,0.395454545454545415,0.404545454545454505,0.39090909090909087,0.404545454545454505,73414,0
PPG,20050525,0.40909090909090905,0.40909090909090905,0.395454545454545415,0.404545454545454505,74000,0
PPG,20050526,0.39999999999999996,0.39999999999999996,0.39999999999999996,0.39999999999999996,16030,0
PPG,20050527,0.404545454545454505,0.40909090909090905,0.404545454545454505,0.404545454545454505,50000,0
PPG,20050530,0.39999999999999996,0.40909090909090905,0.39090909090909087,0.39090909090909087,213581,0
PPG,20050531,0.40909090909090905,0.422727272727272685,0.39999999999999996,0.413636363636363595,213200,0
PPG,20050601,0.404545454545454505,0.404545454545454505,0.39999999999999996,0.404545454545454505,98000,0
PPG,20050602,0.404545454545454505,0.404545454545454505,0.404545454545454505,0.404545454545454505,5000,0
PPG,20050603,0.404545454545454505,0.404545454545454505,0.39999999999999996,0.39999999999999996,115000,0
PPG,20050606,0.395454545454545415,0.39999999999999996,0.395454545454545415,0.39999999999999996,62400,0
PPG,20050607,0.39999999999999996,0.39999999999999996,0.39999999999999996,0.39999999999999996,0,0
PPG,20050608,0.395454545454545415,0.40909090909090905,0.39090909090909087,0.40909090909090905,59100,0
PPG,20050609,0.39999999999999996,0.39999999999999996,0.39090909090909087,0.39090909090909087,15613,0
PPG,20050610,0.395454545454545415,0.395454545454545415,0.395454545454545415,0.395454545454545415,10000,0
PPG,20050613,0.395454545454545415,0.395454545454545415,0.395454545454545415,0.395454545454545415,0,0
PPG,20050614,0.39999999999999996,0.40909090909090905,0.39999999999999996,0.40909090909090905,45417,0
PPG,20050615,0.39999999999999996,0.39999999999999996,0.39090909090909087,0.39090909090909087,47000,0
PPG,20050616,0.39999999999999996,0.39999999999999996,0.39090909090909087,0.39090909090909087,60800,0
PPG,20050617,0.39999999999999996,0.39999999999999996,0.39999999999999996,0.39999999999999996,22200,0
PPG,20050620,0.39999999999999996,0.404545454545454505,0.386363636363636325,0.386363636363636325,84887,0
PPG,20050621,0.386363636363636325,0.395454545454545415,0.386363636363636325,0.386363636363636325,76000,0
PPG,20050622,0.386363636363636325,0.39090909090909087,0.38181818181818178,0.38181818181818178,270400,0
PPG,20050623,0.38181818181818178,0.39090909090909087,0.38181818181818178,0.38181818181818178,39000,0
PPG,20050624,0.38181818181818178,0.38181818181818178,0.377272727272727235,0.38181818181818178,58000,0
PPG,20050627,0.386363636363636325,0.395454545454545415,0.386363636363636325,0.395454545454545415,90000,0
PPG,20050628,0.386363636363636325,0.39090909090909087,0.386363636363636325,0.386363636363636325,41200,0
PPG,20050629,0.386363636363636325,0.386363636363636325,0.377272727272727235,0.377272727272727235,228000,0
PPG,20050630,0.377272727272727235,0.386363636363636325,0.377272727272727235,0.386363636363636325,140500,0
PPG,20050701,0.39090909090909087,0.39090909090909087,0.39090909090909087,0.39090909090909087,14620,0
PPG,20050704,0.38181818181818178,0.38181818181818178,0.38181818181818178,0.38181818181818178,132500,0
PPG,20050705,0.38181818181818178,0.386363636363636325,0.38181818181818178,0.386363636363636325,31080,0
PPG,20050706,0.386363636363636325,0.386363636363636325,0.377272727272727235,0.377272727272727235,67520,0
PPG,20050707,0.38181818181818178,0.38181818181818178,0.38181818181818178,0.38181818181818178,82460,0
PPG,20050708,0.38181818181818178,0.386363636363636325,0.38181818181818178,0.386363636363636325,49700,0
PPG,20050711,0.386363636363636325,0.386363636363636325,0.386363636363636325,0.386363636363636325,0,0
PPG,20050712,0.386363636363636325,0.386363636363636325,0.386363636363636325,0.386363636363636325,20000,0
PPG,20050713,0.386363636363636325,0.386363636363636325,0.38181818181818178,0.38181818181818178,10000,0
PPG,20050714,0.39090909090909087,0.39090909090909087,0.38181818181818178,0.39090909090909087,29700,0
PPG,20050715,0.39090909090909087,0.39999999999999996,0.39090909090909087,0.39999999999999996,102300,0
PPG,20050718,0.40909090909090905,0.43636363636363632,0.40909090909090905,0.43636363636363632,203900,0
PPG,20050719,0.43636363636363632,0.44545454545454541,0.43636363636363632,0.43636363636363632,100000,0
PPG,20050720,0.43636363636363632,0.44545454545454541,0.43636363636363632,0.43636363636363632,101742,0
PPG,20050721,0.43636363636363632,0.44545454545454541,0.43636363636363632,0.43636363636363632,56605,0
PPG,20050722,0.43636363636363632,0.43636363636363632,0.431818181818181775,0.431818181818181775,84592,0
PPG,20050725,0.43636363636363632,0.43636363636363632,0.41818181818181814,0.41818181818181814,98101,0
PPG,20050726,0.42727272727272723,0.43636363636363632,0.42727272727272723,0.431818181818181775,72267,0
PPG,20050727,0.431818181818181775,0.431818181818181775,0.42727272727272723,0.42727272727272723,15800,0
PPG,20050728,0.431818181818181775,0.431818181818181775,0.42727272727272723,0.42727272727272723,11500,0
PPG,20050729,0.43636363636363632,0.43636363636363632,0.43636363636363632,0.43636363636363632,26000,0
PPG,20050801,0.43636363636363632,0.43636363636363632,0.42727272727272723,0.42727272727272723,236191,0
PPG,20050802,0.42727272727272723,0.43636363636363632,0.42727272727272723,0.43636363636363632,12842,0
PPG,20050803,0.42727272727272723,0.431818181818181775,0.42727272727272723,0.431818181818181775,16552,0
PPG,20050804,0.431818181818181775,0.431818181818181775,0.431818181818181775,0.431818181818181775,4550,0
PPG,20050805,0.431818181818181775,0.431818181818181775,0.431818181818181775,0.431818181818181775,12376,0
PPG,20050808,0.431818181818181775,0.440909090909090865,0.431818181818181775,0.431818181818181775,79419,0
PPG,20050809,0.43636363636363632,0.43636363636363632,0.431818181818181775,0.43636363636363632,15300,0
PPG,20050810,0.43636363636363632,0.43636363636363632,0.43636363636363632,0.43636363636363632,6000,0
PPG,20050811,0.43636363636363632,0.440909090909090865,0.43636363636363632,0.43636363636363632,175648,0
PPG,20050812,0.43636363636363632,0.440909090909090865,0.43636363636363632,0.43636363636363632,30000,0
PPG,20050815,0.43636363636363632,0.440909090909090865,0.43636363636363632,0.43636363636363632,52041,0
PPG,20050816,0.43636363636363632,0.43636363636363632,0.42727272727272723,0.431818181818181775,91000,0
PPG,20050817,0.431818181818181775,0.431818181818181775,0.42727272727272723,0.431818181818181775,44471,0
PPG,20050818,0.42727272727272723,0.43636363636363632,0.42727272727272723,0.43636363636363632,37300,0
PPG,20050819,0.43636363636363632,0.43636363636363632,0.43636363636363632,0.43636363636363632,0,0
PPG,20050822,0.431818181818181775,0.431818181818181775,0.42727272727272723,0.42727272727272723,44000,0
PPG,20050823,0.42727272727272723,0.42727272727272723,0.42727272727272723,0.42727272727272723,25500,0
PPG,20050824,0.431818181818181775,0.431818181818181775,0.431818181818181775,0.431818181818181775,16000,0
PPG,20050825,0.431818181818181775,0.431818181818181775,0.42727272727272723,0.42727272727272723,55424,0
PPG,20050826,0.431818181818181775,0.431818181818181775,0.42727272727272723,0.42727272727272723,5600,0
PPG,20050829,0.431818181818181775,0.431818181818181775,0.422727272727272685,0.422727272727272685,34900,0
PPG,20050830,0.42727272727272723,0.42727272727272723,0.42727272727272723,0.42727272727272723,46000,0
PPG,20050831,0.42727272727272723,0.42727272727272723,0.42727272727272723,0.42727272727272723,9000,0
PPG,20050901,0.42727272727272723,0.42727272727272723,0.422727272727272685,0.42727272727272723,54000,0
PPG,20050902,0.422727272727272685,0.422727272727272685,0.422727272727272685,0.422727272727272685,41048,0
PPG,20050905,0.422727272727272685,0.422727272727272685,0.422727272727272685,0.422727272727272685,18500,0
PPG,20050906,0.422727272727272685,0.422727272727272685,0.422727272727272685,0.422727272727272685,40000,0
PPG,20050907,0.422727272727272685,0.42727272727272723,0.422727272727272685,0.42727272727272723,21000,0
PPG,20050908,0.42727272727272723,0.42727272727272723,0.42727272727272723,0.42727272727272723,16142,0
PPG,20050909,0.42727272727272723,0.42727272727272723,0.42727272727272723,0.42727272727272723,28310,0
PPG,20050912,0.422727272727272685,0.422727272727272685,0.41818181818181814,0.41818181818181814,193195,0
PPG,20050913,0.41818181818181814,0.422727272727272685,0.41818181818181814,0.422727272727272685,20000,0
PPG,20050914,0.422727272727272685,0.422727272727272685,0.422727272727272685,0.422727272727272685,0,0
PPG,20050915,0.41818181818181814,0.41818181818181814,0.40909090909090905,0.413636363636363595,253805,0
PPG,20050916,0.413636363636363595,0.413636363636363595,0.40909090909090905,0.413636363636363595,54000,0
PPG,20050919,0.413636363636363595,0.413636363636363595,0.40909090909090905,0.413636363636363595,79700,0
PPG,20050920,0.40909090909090905,0.413636363636363595,0.40909090909090905,0.413636363636363595,65000,0
PPG,20050921,0.40909090909090905,0.40909090909090905,0.40909090909090905,0.40909090909090905,30000,0
PPG,20050922,0.40909090909090905,0.40909090909090905,0.40909090909090905,0.40909090909090905,18000,0
PPG,20050923,0.40909090909090905,0.40909090909090905,0.40909090909090905,0.40909090909090905,94000,0
PPG,20050926,0.404545454545454505,0.404545454545454505,0.395454545454545415,0.395454545454545415,132985,0
PPG,20050927,0.395454545454545415,0.395454545454545415,0.39090909090909087,0.395454545454545415,40300,0
PPG,20050928,0.395454545454545415,0.395454545454545415,0.395454545454545415,0.395454545454545415,10000,0
PPG,20050929,0.39999999999999996,0.39999999999999996,0.395454545454545415,0.395454545454545415,84600,0
PPG,20050930,0.395454545454545415,0.39999999999999996,0.39090909090909087,0.39090909090909087,44615,0
PPG,20051003,0.39090909090909087,0.39090909090909087,0.39090909090909087,0.39090909090909087,10000,0
PPG,20051004,0.39090909090909087,0.39090909090909087,0.39090909090909087,0.39090909090909087,0,0
PPG,20051005,0.395454545454545415,0.395454545454545415,0.39090909090909087,0.39090909090909087,20000,0
PPG,20051006,0.39090909090909087,0.395454545454545415,0.39090909090909087,0.39090909090909087,140000,0
PPG,20051007,0.395454545454545415,0.395454545454545415,0.39090909090909087,0.39090909090909087,60000,0
PPG,20051010,0.395454545454545415,0.395454545454545415,0.39090909090909087,0.39090909090909087,52000,0
PPG,20051011,0.39090909090909087,0.395454545454545415,0.39090909090909087,0.39090909090909087,36000,0
PPG,20051012,0.39090909090909087,0.395454545454545415,0.39090909090909087,0.39090909090909087,114000,0
PPG,20051013,0.395454545454545415,0.395454545454545415,0.395454545454545415,0.395454545454545415,2000,0
PPG,20051014,0.395454545454545415,0.395454545454545415,0.39090909090909087,0.395454545454545415,101000,0
PPG,20051017,0.395454545454545415,0.395454545454545415,0.395454545454545415,0.395454545454545415,107000,0
PPG,20051018,0.395454545454545415,0.395454545454545415,0.395454545454545415,0.395454545454545415,0,0
PPG,20051019,0.395454545454545415,0.395454545454545415,0.39090909090909087,0.39090909090909087,89800,0
PPG,20051020,0.39090909090909087,0.395454545454545415,0.39090909090909087,0.395454545454545415,16000,0
PPG,20051021,0.39090909090909087,0.39090909090909087,0.39090909090909087,0.39090909090909087,84081,0
PPG,20051024,0.39090909090909087,0.39090909090909087,0.39090909090909087,0.39090909090909087,2000,0
PPG,20051025,0.39090909090909087,0.395454545454545415,0.39090909090909087,0.39090909090909087,60800,0
PPG,20051026,0.395454545454545415,0.395454545454545415,0.39090909090909087,0.39090909090909087,20000,0
PPG,20051027,0.395454545454545415,0.395454545454545415,0.395454545454545415,0.395454545454545415,15000,0
PPG,20051028,0.395454545454545415,0.422727272727272685,0.395454545454545415,0.422727272727272685,165000,0
PPG,20051031,0.422727272727272685,0.422727272727272685,0.422727272727272685,0.422727272727272685,3000,0
PPG,20051101,0.422727272727272685,0.422727272727272685,0.41818181818181814,0.41818181818181814,131000,0
PPG,20051102,0.41818181818181814,0.41818181818181814,0.41818181818181814,0.41818181818181814,0,0
PPG,20051103,0.40909090909090905,0.41818181818181814,0.40909090909090905,0.41818181818181814,157700,0
PPG,20051104,0.422727272727272685,0.422727272727272685,0.41818181818181814,0.41818181818181814,17300,0
PPG,20051107,0.41818181818181814,0.42727272727272723,0.41818181818181814,0.42727272727272723,37000,0
PPG,20051108,0.413636363636363595,0.41818181818181814,0.413636363636363595,0.41818181818181814,15000,0
PPG,20051109,0.41818181818181814,0.41818181818181814,0.41818181818181814,0.41818181818181814,12000,0
PPG,20051110,0.41818181818181814,0.41818181818181814,0.41818181818181814,0.41818181818181814,0,0
PPG,20051111,0.422727272727272685,0.422727272727272685,0.422727272727272685,0.422727272727272685,5000,0
PPG,20051114,0.422727272727272685,0.422727272727272685,0.40909090909090905,0.40909090909090905,26000,0
PPG,20051115,0.41818181818181814,0.41818181818181814,0.413636363636363595,0.413636363636363595,41000,0
PPG,20051116,0.413636363636363595,0.413636363636363595,0.413636363636363595,0.413636363636363595,18000,0
PPG,20051117,0.413636363636363595,0.41818181818181814,0.40909090909090905,0.41818181818181814,68200,0
PPG,20051118,0.41818181818181814,0.422727272727272685,0.413636363636363595,0.422727272727272685,51000,0
PPG,20051121,0.422727272727272685,0.422727272727272685,0.413636363636363595,0.413636363636363595,26900,0
PPG,20051122,0.413636363636363595,0.413636363636363595,0.413636363636363595,0.413636363636363595,0,0
PPG,20051123,0.41818181818181814,0.41818181818181814,0.41818181818181814,0.41818181818181814,4000,0
PPG,20051124,0.41818181818181814,0.41818181818181814,0.41818181818181814,0.41818181818181814,48000,0
PPG,20051125,0.422727272727272685,0.42727272727272723,0.41818181818181814,0.41818181818181814,39000,0
PPG,20051128,0.42727272727272723,0.431818181818181775,0.42727272727272723,0.42727272727272723,82000,0
PPG,20051129,0.42727272727272723,0.42727272727272723,0.42727272727272723,0.42727272727272723,20000,0
PPG,20051130,0.42727272727272723,0.42727272727272723,0.41818181818181814,0.41818181818181814,27625,0
PPG,20051201,0.41818181818181814,0.41818181818181814,0.40909090909090905,0.40909090909090905,122000,0
PPG,20051202,0.41818181818181814,0.41818181818181814,0.41818181818181814,0.41818181818181814,20000,0
PPG,20051205,0.41818181818181814,0.41818181818181814,0.41818181818181814,0.41818181818181814,0,0
PPG,20051206,0.41818181818181814,0.41818181818181814,0.41818181818181814,0.41818181818181814,0,0
PPG,20051207,0.41818181818181814,0.41818181818181814,0.41818181818181814,0.41818181818181814,0,0
PPG,20051208,0.413636363636363595,0.422727272727272685,0.413636363636363595,0.422727272727272685,9000,0
PPG,20051209,0.422727272727272685,0.422727272727272685,0.422727272727272685,0.422727272727272685,0,0
PPG,20051212,0.413636363636363595,0.413636363636363595,0.413636363636363595,0.413636363636363595,4000,0
PPG,20051213,0.413636363636363595,0.413636363636363595,0.413636363636363595,0.413636363636363595,0,0
PPG,20051214,0.413636363636363595,0.413636363636363595,0.413636363636363595,0.413636363636363595,2500,0
PPG,20051215,0.413636363636363595,0.413636363636363595,0.413636363636363595,0.413636363636363595,8500,0
PPG,20051216,0.40909090909090905,0.40909090909090905,0.40909090909090905,0.40909090909090905,64000,0
PPG,20051219,0.40909090909090905,0.40909090909090905,0.40909090909090905,0.40909090909090905,52000,0
PPG,20051220,0.40909090909090905,0.40909090909090905,0.40909090909090905,0.40909090909090905,0,0
PPG,20051221,0.404545454545454505,0.404545454545454505,0.39999999999999996,0.39999999999999996,32200,0
PPG,20051222,0.39999999999999996,0.39999999999999996,0.39999999999999996,0.39999999999999996,0,0
PPG,20051223,0.395454545454545415,0.40909090909090905,0.395454545454545415,0.39999999999999996,114371,0
PPG,20051226,0.39999999999999996,0.39999999999999996,0.39999999999999996,0.39999999999999996,0,0
PPG,20051227,0.39999999999999996,0.39999999999999996,0.39999999999999996,0.39999999999999996,0,0
PPG,20051228,0.39999999999999996,0.39999999999999996,0.39999999999999996,0.39999999999999996,0,0
PPG,20051229,0.39999999999999996,0.39999999999999996,0.39999999999999996,0.39999999999999996,0,0
PPG,20051230,0.39999999999999996,0.39999999999999996,0.39999999999999996,0.39999999999999996,11000,0
PPG,20060102,0.39999999999999996,0.39999999999999996,0.39999999999999996,0.39999999999999996,0,0
PPG,20060103,0.39090909090909087,0.395454545454545415,0.39090909090909087,0.395454545454545415,46000,0
PPG,20060104,0.395454545454545415,0.395454545454545415,0.39090909090909087,0.39090909090909087,36100,0
PPG,20060105,0.39090909090909087,0.39090909090909087,0.39090909090909087,0.39090909090909087,3900,0
PPG,20060106,0.39090909090909087,0.39090909090909087,0.39090909090909087,0.39090909090909087,31999,0
PPG,20060109,0.39090909090909087,0.39090909090909087,0.39090909090909087,0.39090909090909087,20700,0
PPG,20060110,0.39090909090909087,0.39090909090909087,0.38181818181818178,0.38181818181818178,74901,0
PPG,20060111,0.38181818181818178,0.39090909090909087,0.368181818181818145,0.368181818181818145,88000,0
PPG,20060112,0.37272727272727269,0.377272727272727235,0.37272727272727269,0.377272727272727235,33000,0
PPG,20060113,0.377272727272727235,0.40909090909090905,0.377272727272727235,0.40909090909090905,137370,0
PPG,20060116,0.413636363636363595,0.413636363636363595,0.39999999999999996,0.413636363636363595,120000,0
PPG,20060117,0.413636363636363595,0.413636363636363595,0.40909090909090905,0.40909090909090905,75000,0
PPG,20060118,0.40909090909090905,0.40909090909090905,0.39999999999999996,0.39999999999999996,70860,0
PPG,20060119,0.39999999999999996,0.39999999999999996,0.39999999999999996,0.39999999999999996,17000,0
PPG,20060120,0.39999999999999996,0.39999999999999996,0.39999999999999996,0.39999999999999996,4000,0
PPG,20060123,0.39999999999999996,0.404545454545454505,0.39999999999999996,0.404545454545454505,48000,0
PPG,20060124,0.404545454545454505,0.404545454545454505,0.404545454545454505,0.404545454545454505,0,0
PPG,20060125,0.39999999999999996,0.422727272727272685,0.39999999999999996,0.40909090909090905,55191,0
PPG,20060126,0.40909090909090905,0.40909090909090905,0.40909090909090905,0.40909090909090905,0,0
PPG,20060127,0.41818181818181814,0.41818181818181814,0.41818181818181814,0.41818181818181814,5000,0
PPG,20060130,0.40909090909090905,0.40909090909090905,0.40909090909090905,0.40909090909090905,10000,0
PPG,20060131,0.40909090909090905,0.40909090909090905,0.40909090909090905,0.40909090909090905,16000,0
PPG,20060201,0.40909090909090905,0.40909090909090905,0.40909090909090905,0.40909090909090905,48641,0
PPG,20060202,0.40909090909090905,0.40909090909090905,0.404545454545454505,0.404545454545454505,30000,0
PPG,20060203,0.39999999999999996,0.39999999999999996,0.39999999999999996,0.39999999999999996,12000,0
PPG,20060206,0.39999999999999996,0.40909090909090905,0.39999999999999996,0.39999999999999996,12000,0
PPG,20060207,0.395454545454545415,0.395454545454545415,0.395454545454545415,0.395454545454545415,10000,0
PPG,20060208,0.395454545454545415,0.395454545454545415,0.395454545454545415,0.395454545454545415,0,0
PPG,20060209,0.395454545454545415,0.395454545454545415,0.395454545454545415,0.395454545454545415,0,0
PPG,20060210,0.39999999999999996,0.39999999999999996,0.39999999999999996,0.39999999999999996,14000,0
PPG,20060213,0.39999999999999996,0.39999999999999996,0.39999999999999996,0.39999999999999996,41000,0
PPG,20060214,0.39999999999999996,0.39999999999999996,0.39999999999999996,0.39999999999999996,4000,0
PPG,20060215,0.39999999999999996,0.39999999999999996,0.39999999999999996,0.39999999999999996,5000,0
PPG,20060216,0.39999999999999996,0.39999999999999996,0.39999999999999996,0.39999999999999996,17947,0
PPG,20060217,0.39999999999999996,0.39999999999999996,0.395454545454545415,0.395454545454545415,36053,0
PPG,20060220,0.395454545454545415,0.395454545454545415,0.395454545454545415,0.395454545454545415,0,0
PPG,20060221,0.395454545454545415,0.395454545454545415,0.395454545454545415,0.395454545454545415,4300,0
PPG,20060222,0.395454545454545415,0.395454545454545415,0.395454545454545415,0.395454545454545415,0,0
PPG,20060223,0.395454545454545415,0.395454545454545415,0.395454545454545415,0.395454545454545415,10500,0
PPG,20060224,0.395454545454545415,0.395454545454545415,0.395454545454545415,0.395454545454545415,0,0
PPG,20060227,0.395454545454545415,0.395454545454545415,0.386363636363636325,0.386363636363636325,24000,0
PPG,20060228,0.38181818181818178,0.38181818181818178,0.37272727272727269,0.37272727272727269,47000,0
PPG,20060301,0.386363636363636325,0.386363636363636325,0.386363636363636325,0.386363636363636325,6000,0
PPG,20060302,0.377272727272727235,0.377272727272727235,0.377272727272727235,0.377272727272727235,30000,0
PPG,20060303,0.377272727272727235,0.377272727272727235,0.377272727272727235,0.377272727272727235,14000,0
PPG,20060306,0.38181818181818178,0.38181818181818178,0.377272727272727235,0.377272727272727235,6000,0
PPG,20060307,0.377272727272727235,0.377272727272727235,0.377272727272727235,0.377272727272727235,0,0
PPG,20060308,0.386363636363636325,0.39090909090909087,0.3636363636363636,0.3636363636363636,228500,0
PPG,20060309,0.34545454545454542,0.34545454545454542,0.313636363636363605,0.313636363636363605,40000,0
PPG,20060310,0.331818181818181785,0.359090909090909055,0.32727272727272724,0.359090909090909055,114000,0
PPG,20060313,0.34545454545454542,0.359090909090909055,0.34545454545454542,0.34545454545454542,10300,0
PPG,20060314,0.34545454545454542,0.34545454545454542,0.340909090909090875,0.34545454545454542,10500,0
PPG,20060315,0.359090909090909055,0.359090909090909055,0.331818181818181785,0.331818181818181785,61150,0
PPG,20060316,0.340909090909090875,0.340909090909090875,0.331818181818181785,0.331818181818181785,40000,0
PPG,20060317,0.33636363636363633,0.34545454545454542,0.33636363636363633,0.33636363636363633,32700,0
PPG,20060320,0.32727272727272724,0.32727272727272724,0.32727272727272724,0.32727272727272724,36500,0
PPG,20060321,0.32727272727272724,0.33636363636363633,0.32727272727272724,0.33636363636363633,20000,0
PPG,20060322,0.33636363636363633,0.33636363636363633,0.33636363636363633,0.33636363636363633,5868,0
PPG,20060323,0.33636363636363633,0.33636363636363633,0.33636363636363633,0.33636363636363633,0,0
PPG,20060324,0.33636363636363633,0.33636363636363633,0.33636363636363633,0.33636363636363633,0,0
PPG,20060327,0.331818181818181785,0.331818181818181785,0.30909090909090906,0.30909090909090906,189000,0
PPG,20060328,0.30909090909090906,0.30909090909090906,0.29999999999999997,0.29999999999999997,10775,0
PPG,20060329,0.29999999999999997,0.32727272727272724,0.29999999999999997,0.32727272727272724,40185,0
PPG,20060330,0.32727272727272724,0.32727272727272724,0.32727272727272724,0.32727272727272724,107200,0
PPG,20060331,0.32727272727272724,0.32727272727272724,0.32727272727272724,0.32727272727272724,0,0
PPG,20060403,0.30909090909090906,0.30909090909090906,0.30909090909090906,0.30909090909090906,4000,0
PPG,20060404,0.30909090909090906,0.30909090909090906,0.295454545454545425,0.29999999999999997,147000,0
PPG,20060405,0.29999999999999997,0.30909090909090906,0.29999999999999997,0.30909090909090906,301800,0
PPG,20060406,0.30909090909090906,0.31818181818181815,0.30909090909090906,0.31818181818181815,27200,0
PPG,20060407,0.31818181818181815,0.31818181818181815,0.31818181818181815,0.31818181818181815,22500,0
PPG,20060410,0.31818181818181815,0.331818181818181785,0.313636363636363605,0.331818181818181785,65000,0
PPG,20060411,0.331818181818181785,0.331818181818181785,0.331818181818181785,0.331818181818181785,17000,0
PPG,20060412,0.331818181818181785,0.331818181818181785,0.331818181818181785,0.331818181818181785,11401,0
PPG,20060413,0.31818181818181815,0.31818181818181815,0.31818181818181815,0.31818181818181815,17000,0
PPG,20060414,0.31818181818181815,0.31818181818181815,0.31818181818181815,0.31818181818181815,0,0
PPG,20060417,0.31818181818181815,0.31818181818181815,0.31818181818181815,0.31818181818181815,0,0
PPG,20060418,0.31818181818181815,0.31818181818181815,0.31818181818181815,0.31818181818181815,25949,0
PPG,20060419,0.31818181818181815,0.32727272727272724,0.31818181818181815,0.322727272727272695,62352,0
PPG,20060420,0.32727272727272724,0.33636363636363633,0.32727272727272724,0.33636363636363633,16000,0
PPG,20060421,0.32727272727272724,0.33636363636363633,0.32727272727272724,0.33636363636363633,51736,0
PPG,20060424,0.32727272727272724,0.32727272727272724,0.32727272727272724,0.32727272727272724,87000,0
PPG,20060425,0.32727272727272724,0.32727272727272724,0.32727272727272724,0.32727272727272724,0,0
PPG,20060426,0.32727272727272724,0.33636363636363633,0.32727272727272724,0.33636363636363633,12020,0
PPG,20060427,0.33636363636363633,0.33636363636363633,0.32727272727272724,0.33636363636363633,27176,0
PPG,20060428,0.331818181818181785,0.331818181818181785,0.331818181818181785,0.331818181818181785,52000,0
PPG,20060501,0.331818181818181785,0.331818181818181785,0.331818181818181785,0.331818181818181785,14204,0
PPG,20060502,0.331818181818181785,0.331818181818181785,0.32727272727272724,0.32727272727272724,81760,0
PPG,20060503,0.331818181818181785,0.331818181818181785,0.32727272727272724,0.331818181818181785,107000,0
PPG,20060504,0.33636363636363633,0.33636363636363633,0.331818181818181785,0.331818181818181785,21555,0
PPG,20060505,0.331818181818181785,0.331818181818181785,0.32727272727272724,0.32727272727272724,38801,0
PPG,20060508,0.33636363636363633,0.33636363636363633,0.33636363636363633,0.33636363636363633,60000,0
PPG,20060509,0.33636363636363633,0.33636363636363633,0.32727272727272724,0.32727272727272724,43500,0
PPG,20060510,0.32727272727272724,0.33636363636363633,0.32727272727272724,0.33636363636363633,82000,0
PPG,20060511,0.32727272727272724,0.32727272727272724,0.32727272727272724,0.32727272727272724,21159,0
PPG,20060512,0.331818181818181785,0.33636363636363633,0.322727272727272695,0.322727272727272695,74078,0
PPG,20060515,0.322727272727272695,0.322727272727272695,0.322727272727272695,0.322727272727272695,5200,0
PPG,20060516,0.322727272727272695,0.322727272727272695,0.322727272727272695,0.322727272727272695,44000,0
PPG,20060517,0.32727272727272724,0.32727272727272724,0.322727272727272695,0.322727272727272695,166000,0
PPG,20060518,0.322727272727272695,0.322727272727272695,0.29999999999999997,0.29999999999999997,122181,0
PPG,20060519,0.304545454545454515,0.31818181818181815,0.304545454545454515,0.31818181818181815,5100,0
PPG,20060522,0.31818181818181815,0.31818181818181815,0.30909090909090906,0.30909090909090906,85678,0
PPG,20060523,0.29999999999999997,0.29999999999999997,0.29999999999999997,0.29999999999999997,15452,0
PPG,20060524,0.30909090909090906,0.30909090909090906,0.29999999999999997,0.29999999999999997,150000,0
PPG,20060525,0.29999999999999997,0.29999999999999997,0.29090909090909088,0.29999999999999997,67400,0
PPG,20060526,0.29999999999999997,0.29999999999999997,0.29999999999999997,0.29999999999999997,0,0
PPG,20060529,0.304545454545454515,0.304545454545454515,0.29999999999999997,0.29999999999999997,77000,0
PPG,20060530,0.29090909090909088,0.29090909090909088,0.29090909090909088,0.29090909090909088,71000,0
PPG,20060531,0.28181818181818179,0.28181818181818179,0.28181818181818179,0.28181818181818179,2000,0
PPG,20060601,0.2727272727272727,0.2727272727272727,0.2727272727272727,0.2727272727272727,10000,0
PPG,20060602,0.2727272727272727,0.2727272727272727,0.2727272727272727,0.2727272727272727,29200,0
PPG,20060605,0.277272727272727245,0.28181818181818179,0.277272727272727245,0.277272727272727245,72389,0
PPG,20060606,0.277272727272727245,0.277272727272727245,0.2727272727272727,0.2727272727272727,120704,0
PPG,20060607,0.2727272727272727,0.2727272727272727,0.2727272727272727,0.2727272727272727,64025,0
PPG,20060608,0.2727272727272727,0.2727272727272727,0.2727272727272727,0.2727272727272727,28882,0
PPG,20060609,0.2727272727272727,0.28181818181818179,0.2727272727272727,0.2727272727272727,90000,0
PPG,20060612,0.2727272727272727,0.2727272727272727,0.2727272727272727,0.2727272727272727,0,0
PPG,20060613,0.2727272727272727,0.2727272727272727,0.2727272727272727,0.2727272727272727,7000,0
PPG,20060614,0.2727272727272727,0.2727272727272727,0.2727272727272727,0.2727272727272727,73000,0
PPG,20060615,0.2727272727272727,0.2727272727272727,0.2727272727272727,0.2727272727272727,0,0
PPG,20060616,0.268181818181818155,0.2727272727272727,0.26363636363636361,0.2727272727272727,65000,0
PPG,20060619,0.268181818181818155,0.268181818181818155,0.268181818181818155,0.268181818181818155,21000,0
PPG,20060620,0.268181818181818155,0.2727272727272727,0.268181818181818155,0.2727272727272727,2000,0
PPG,20060621,0.26363636363636361,0.26363636363636361,0.259090909090909065,0.259090909090909065,33500,0
PPG,20060622,0.26363636363636361,0.268181818181818155,0.26363636363636361,0.26363636363636361,30431,0
PPG,20060623,0.26363636363636361,0.26363636363636361,0.26363636363636361,0.26363636363636361,29969,0
PPG,20060626,0.259090909090909065,0.259090909090909065,0.259090909090909065,0.259090909090909065,216640,0
PPG,20060627,0.259090909090909065,0.259090909090909065,0.259090909090909065,0.259090909090909065,76000,0
PPG,20060628,0.259090909090909065,0.259090909090909065,0.259090909090909065,0.259090909090909065,20000,0
PPG,20060629,0.259090909090909065,0.259090909090909065,0.259090909090909065,0.259090909090909065,36000,0
PPG,20060630,0.259090909090909065,0.259090909090909065,0.25454545454545452,0.259090909090909065,160836,0
PPG,20060703,0.259090909090909065,0.26363636363636361,0.259090909090909065,0.259090909090909065,33737,0
PPG,20060704,0.26363636363636361,0.26363636363636361,0.26363636363636361,0.26363636363636361,50000,0
PPG,20060705,0.26363636363636361,0.26363636363636361,0.26363636363636361,0.26363636363636361,0,0
PPG,20060706,0.2727272727272727,0.29090909090909088,0.2727272727272727,0.29090909090909088,40031,0
PPG,20060707,0.29090909090909088,0.29090909090909088,0.29090909090909088,0.29090909090909088,0,0
PPG,20060710,0.29090909090909088,0.29090909090909088,0.29090909090909088,0.29090909090909088,0,0
PPG,20060711,0.29090909090909088,0.29090909090909088,0.29090909090909088,0.29090909090909088,0,0
PPG,20060712,0.29090909090909088,0.29090909090909088,0.29090909090909088,0.29090909090909088,0,0
PPG,20060713,0.29090909090909088,0.29090909090909088,0.29090909090909088,0.29090909090909088,0,0
PPG,20060714,0.29090909090909088,0.29090909090909088,0.29090909090909088,0.29090909090909088,0,0
PPG,20060717,0.29090909090909088,0.29090909090909088,0.29090909090909088,0.29090909090909088,0,0
PPG,20060718,0.29090909090909088,0.29090909090909088,0.29090909090909088,0.29090909090909088,0,0
PPG,20060719,0.2727272727272727,0.28181818181818179,0.2727272727272727,0.28181818181818179,4000,0
PPG,20060720,0.29090909090909088,0.29090909090909088,0.29090909090909088,0.29090909090909088,65000,0
PPG,20060721,0.29090909090909088,0.29090909090909088,0.29090909090909088,0.29090909090909088,0,0
PPG,20060724,0.28181818181818179,0.28181818181818179,0.28181818181818179,0.28181818181818179,4176,0
PPG,20060725,0.295454545454545425,0.295454545454545425,0.29090909090909088,0.29090909090909088,28000,0
PPG,20060726,0.29090909090909088,0.29090909090909088,0.29090909090909088,0.29090909090909088,4352,0
PPG,20060727,0.29090909090909088,0.29090909090909088,0.29090909090909088,0.29090909090909088,4000,0
PPG,20060728,0.29090909090909088,0.29090909090909088,0.29090909090909088,0.29090909090909088,4000,0
PPG,20060731,0.29999999999999997,0.29999999999999997,0.29999999999999997,0.29999999999999997,25500,0
PPG,20060801,0.29090909090909088,0.29090909090909088,0.29090909090909088,0.29090909090909088,1320,0
PPG,20060802,0.29090909090909088,0.29090909090909088,0.29090909090909088,0.29090909090909088,4000,0
PPG,20060803,0.29090909090909088,0.29090909090909088,0.29090909090909088,0.29090909090909088,0,0
PPG,20060804,0.29090909090909088,0.29090909090909088,0.28181818181818179,0.28181818181818179,23987,0
PPG,20060807,0.28181818181818179,0.28181818181818179,0.28181818181818179,0.28181818181818179,0,0
PPG,20060808,0.28181818181818179,0.28181818181818179,0.28181818181818179,0.28181818181818179,10000,0
PPG,20060809,0.286363636363636335,0.286363636363636335,0.286363636363636335,0.286363636363636335,51000,0
PPG,20060810,0.286363636363636335,0.286363636363636335,0.277272727272727245,0.277272727272727245,34800,0
PPG,20060811,0.28181818181818179,0.28181818181818179,0.28181818181818179,0.28181818181818179,10000,0
PPG,20060814,0.28181818181818179,0.28181818181818179,0.28181818181818179,0.28181818181818179,0,0
PPG,20060815,0.28181818181818179,0.28181818181818179,0.28181818181818179,0.28181818181818179,0,0
PPG,20060816,0.304545454545454515,0.304545454545454515,0.28181818181818179,0.28181818181818179,10228,0
PPG,20060817,0.28181818181818179,0.28181818181818179,0.28181818181818179,0.28181818181818179,4000,0
PPG,20060818,0.28181818181818179,0.28181818181818179,0.28181818181818179,0.28181818181818179,0,0
PPG,20060821,0.28181818181818179,0.28181818181818179,0.28181818181818179,0.28181818181818179,0,0
PPG,20060822,0.28181818181818179,0.28181818181818179,0.28181818181818179,0.28181818181818179,0,0
PPG,20060823,0.28181818181818179,0.28181818181818179,0.28181818181818179,0.28181818181818179,0,0
PPG,20060824,0.28181818181818179,0.28181818181818179,0.28181818181818179,0.28181818181818179,4140,0
PPG,20060825,0.28181818181818179,0.28181818181818179,0.28181818181818179,0.28181818181818179,0,0
PPG,20060828,0.28181818181818179,0.28181818181818179,0.28181818181818179,0.28181818181818179,0,0
PPG,20060829,0.28181818181818179,0.28181818181818179,0.28181818181818179,0.28181818181818179,0,0
PPG,20060830,0.28181818181818179,0.28181818181818179,0.28181818181818179,0.28181818181818179,4000,0
PPG,20060831,0.28181818181818179,0.29090909090909088,0.28181818181818179,0.29090909090909088,15000,0
PPG,20060901,0.2727272727272727,0.28181818181818179,0.26363636363636361,0.28181818181818179,55000,0
PPG,20060904,0.28181818181818179,0.28181818181818179,0.28181818181818179,0.28181818181818179,0,0
PPG,20060905,0.28181818181818179,0.28181818181818179,0.28181818181818179,0.28181818181818179,0,0
PPG,20060906,0.28181818181818179,0.28181818181818179,0.28181818181818179,0.28181818181818179,20000,0
PPG,20060907,0.277272727272727245,0.277272727272727245,0.277272727272727245,0.277272727272727245,4000,0
PPG,20060908,0.277272727272727245,0.277272727272727245,0.277272727272727245,0.277272727272727245,0,0
PPG,20060911,0.277272727272727245,0.277272727272727245,0.277272727272727245,0.277272727272727245,0,0
PPG,20060912,0.277272727272727245,0.277272727272727245,0.277272727272727245,0.277272727272727245,0,0
PPG,20060913,0.28181818181818179,0.28181818181818179,0.28181818181818179,0.28181818181818179,6000,0
PPG,20060914,0.28181818181818179,0.28181818181818179,0.28181818181818179,0.28181818181818179,19000,0
PPG,20060915,0.28181818181818179,0.28181818181818179,0.28181818181818179,0.28181818181818179,0,0
PPG,20060918,0.28181818181818179,0.28181818181818179,0.28181818181818179,0.28181818181818179,0,0
PPG,20060919,0.29090909090909088,0.29090909090909088,0.29090909090909088,0.29090909090909088,11500,0
PPG,20060920,0.29090909090909088,0.29090909090909088,0.29090909090909088,0.29090909090909088,0,0
PPG,20060921,0.29090909090909088,0.29090909090909088,0.29090909090909088,0.29090909090909088,5000,0
PPG,20060922,0.29999999999999997,0.29999999999999997,0.29999999999999997,0.29999999999999997,3125,0
PPG,20060925,0.277272727272727245,0.277272727272727245,0.277272727272727245,0.277272727272727245,30000,0
PPG,20060926,0.277272727272727245,0.277272727272727245,0.277272727272727245,0.277272727272727245,0,0
PPG,20060927,0.28181818181818179,0.28181818181818179,0.28181818181818179,0.28181818181818179,4000,0
PPG,20060928,0.28181818181818179,0.28181818181818179,0.28181818181818179,0.28181818181818179,29875,0
PPG,20060929,0.28181818181818179,0.28181818181818179,0.28181818181818179,0.28181818181818179,0,0
PPG,20061002,0.28181818181818179,0.28181818181818179,0.28181818181818179,0.28181818181818179,0,0
PPG,20061003,0.28181818181818179,0.28181818181818179,0.28181818181818179,0.28181818181818179,0,0
PPG,20061004,0.31818181818181815,0.31818181818181815,0.31818181818181815,0.31818181818181815,2900,0
PPG,20061005,0.28181818181818179,0.295454545454545425,0.277272727272727245,0.295454545454545425,77400,0
PPG,20061006,0.29090909090909088,0.29090909090909088,0.29090909090909088,0.29090909090909088,11000,0
PPG,20061009,0.29090909090909088,0.29090909090909088,0.29090909090909088,0.29090909090909088,4000,0
PPG,20061010,0.29090909090909088,0.29090909090909088,0.29090909090909088,0.29090909090909088,0,0
PPG,20061011,0.29090909090909088,0.29090909090909088,0.29090909090909088,0.29090909090909088,0,0
PPG,20061012,0.31818181818181815,0.31818181818181815,0.31818181818181815,0.31818181818181815,2800,0
PPG,20061013,0.31818181818181815,0.31818181818181815,0.31818181818181815,0.31818181818181815,0,0
PPG,20061016,0.31818181818181815,0.31818181818181815,0.31818181818181815,0.31818181818181815,0,0
PPG,20061017,0.31818181818181815,0.31818181818181815,0.31818181818181815,0.31818181818181815,0,0
PPG,20061018,0.31818181818181815,0.31818181818181815,0.31818181818181815,0.31818181818181815,0,0
PPG,20061019,0.31818181818181815,0.31818181818181815,0.31818181818181815,0.31818181818181815,0,0
PPG,20061020,0.31818181818181815,0.31818181818181815,0.31818181818181815,0.31818181818181815,50700,0
PPG,20061023,0.32727272727272724,0.32727272727272724,0.31818181818181815,0.31818181818181815,232201,0
PPG,20061024,0.31818181818181815,0.31818181818181815,0.31818181818181815,0.31818181818181815,20000,0
PPG,20061025,0.31818181818181815,0.31818181818181815,0.31818181818181815,0.31818181818181815,1429,0
PPG,20061026,0.31818181818181815,0.31818181818181815,0.31818181818181815,0.31818181818181815,0,0
PPG,20061027,0.313636363636363605,0.313636363636363605,0.304545454545454515,0.304545454545454515,8000,0
PPG,20061030,0.31818181818181815,0.31818181818181815,0.304545454545454515,0.31818181818181815,183598,0
PPG,20061031,0.31818181818181815,0.31818181818181815,0.31818181818181815,0.31818181818181815,0,0
PPG,20061101,0.304545454545454515,0.304545454545454515,0.304545454545454515,0.304545454545454515,741,0
PPG,20061102,0.304545454545454515,0.304545454545454515,0.304545454545454515,0.304545454545454515,5000,0
PPG,20061103,0.304545454545454515,0.31818181818181815,0.29999999999999997,0.31818181818181815,434230,0
PPG,20061106,0.31818181818181815,0.31818181818181815,0.31818181818181815,0.31818181818181815,0,0
PPG,20061107,0.31818181818181815,0.31818181818181815,0.31818181818181815,0.31818181818181815,598,0
PPG,20061108,0.30909090909090906,0.30909090909090906,0.30909090909090906,0.30909090909090906,4000,0
PPG,20061109,0.30909090909090906,0.30909090909090906,0.30909090909090906,0.30909090909090906,4492,0
PPG,20061110,0.30909090909090906,0.31818181818181815,0.30909090909090906,0.31818181818181815,50000,0
PPG,20061113,0.31818181818181815,0.31818181818181815,0.31818181818181815,0.31818181818181815,0,0
PPG,20061114,0.31818181818181815,0.31818181818181815,0.31818181818181815,0.31818181818181815,50000,0
PPG,20061115,0.31818181818181815,0.322727272727272695,0.31818181818181815,0.31818181818181815,80402,0
PPG,20061116,0.31818181818181815,0.31818181818181815,0.31818181818181815,0.31818181818181815,2139,0
PPG,20061117,0.331818181818181785,0.331818181818181785,0.32727272727272724,0.331818181818181785,63519,0
PPG,20061120,0.33636363636363633,0.35454545454545451,0.33636363636363633,0.349999999999999965,94337,0
PPG,20061121,0.340909090909090875,0.35454545454545451,0.33636363636363633,0.35454545454545451,40000,0
PPG,20061122,0.34545454545454542,0.34545454545454542,0.33636363636363633,0.33636363636363633,20000,0
PPG,20061123,0.340909090909090875,0.340909090909090875,0.340909090909090875,0.340909090909090875,41862,0
PPG,20061124,0.340909090909090875,0.340909090909090875,0.340909090909090875,0.340909090909090875,0,0
PPG,20061127,0.35454545454545451,0.35454545454545451,0.34545454545454542,0.34545454545454542,30000,0
PPG,20061128,0.340909090909090875,0.340909090909090875,0.33636363636363633,0.33636363636363633,10000,0
PPG,20061129,0.33636363636363633,0.33636363636363633,0.331818181818181785,0.331818181818181785,38500,0
PPG,20061130,0.331818181818181785,0.349999999999999965,0.32727272727272724,0.349999999999999965,46710,0
PPG,20061201,0.349999999999999965,0.349999999999999965,0.349999999999999965,0.349999999999999965,0,0
PPG,20061204,0.349999999999999965,0.349999999999999965,0.349999999999999965,0.349999999999999965,0,0
PPG,20061205,0.349999999999999965,0.349999999999999965,0.349999999999999965,0.349999999999999965,0,0
PPG,20061206,0.33636363636363633,0.33636363636363633,0.33636363636363633,0.33636363636363633,20000,0
PPG,20061207,0.33636363636363633,0.33636363636363633,0.33636363636363633,0.33636363636363633,0,0
PPG,20061208,0.33636363636363633,0.33636363636363633,0.322727272727272695,0.32727272727272724,32000,0
PPG,20061211,0.32727272727272724,0.32727272727272724,0.32727272727272724,0.32727272727272724,0,0
PPG,20061212,0.331818181818181785,0.331818181818181785,0.331818181818181785,0.331818181818181785,7164,0
PPG,20061213,0.331818181818181785,0.331818181818181785,0.331818181818181785,0.331818181818181785,0,0
PPG,20061214,0.33636363636363633,0.33636363636363633,0.33636363636363633,0.33636363636363633,1200,0
PPG,20061215,0.33636363636363633,0.33636363636363633,0.33636363636363633,0.33636363636363633,0,0
PPG,20061218,0.33636363636363633,0.33636363636363633,0.33636363636363633,0.33636363636363633,0,0
PPG,20061219,0.32727272727272724,0.32727272727272724,0.31818181818181815,0.31818181818181815,30000,0
PPG,20061220,0.33636363636363633,0.33636363636363633,0.33636363636363633,0.33636363636363633,5800,0
PPG,20061221,0.31818181818181815,0.31818181818181815,0.31818181818181815,0.31818181818181815,2139,0
PPG,20061222,0.31818181818181815,0.31818181818181815,0.31818181818181815,0.31818181818181815,0,0
PPG,20061225,0.31818181818181815,0.31818181818181815,0.31818181818181815,0.31818181818181815,0,0
PPG,20061226,0.31818181818181815,0.31818181818181815,0.31818181818181815,0.31818181818181815,0,0
PPG,20061227,0.33636363636363633,0.33636363636363633,0.33636363636363633,0.33636363636363633,3333,0
PPG,20061228,0.32727272727272724,0.32727272727272724,0.32727272727272724,0.32727272727272724,300,0
PPG,20061229,0.33636363636363633,0.33636363636363633,0.33636363636363633,0.33636363636363633,12700,0
PPG,20070101,0.33636363636363633,0.33636363636363633,0.33636363636363633,0.33636363636363633,0,0
PPG,20070102,0.33636363636363633,0.33636363636363633,0.33636363636363633,0.33636363636363633,0,0
PPG,20070103,0.33636363636363633,0.33636363636363633,0.33636363636363633,0.33636363636363633,0,0
PPG,20070104,0.32727272727272724,0.32727272727272724,0.32727272727272724,0.32727272727272724,10000,0
PPG,20070105,0.322727272727272695,0.322727272727272695,0.322727272727272695,0.322727272727272695,10000,0
PPG,20070108,0.322727272727272695,0.322727272727272695,0.313636363636363605,0.313636363636363605,74000,0
PPG,20070109,0.30909090909090906,0.30909090909090906,0.30909090909090906,0.30909090909090906,11709,0
PPG,20070110,0.30909090909090906,0.30909090909090906,0.30909090909090906,0.30909090909090906,0,0
PPG,20070111,0.30909090909090906,0.30909090909090906,0.30909090909090906,0.30909090909090906,3028,0
PPG,20070112,0.30909090909090906,0.30909090909090906,0.30909090909090906,0.30909090909090906,36972,0
PPG,20070115,0.30909090909090906,0.30909090909090906,0.295454545454545425,0.304545454545454515,53000,0
PPG,20070116,0.29999999999999997,0.29999999999999997,0.29999999999999997,0.29999999999999997,10000,0
PPG,20070117,0.30909090909090906,0.30909090909090906,0.30909090909090906,0.30909090909090906,3000,0
PPG,20070118,0.30909090909090906,0.30909090909090906,0.30909090909090906,0.30909090909090906,13000,0
PPG,20070119,0.30909090909090906,0.30909090909090906,0.30909090909090906,0.30909090909090906,1115,0
PPG,20070122,0.30909090909090906,0.31818181818181815,0.30909090909090906,0.31818181818181815,40800,0
PPG,20070123,0.31818181818181815,0.32727272727272724,0.31818181818181815,0.32727272727272724,45001,0
PPG,20070124,0.322727272727272695,0.322727272727272695,0.31818181818181815,0.31818181818181815,110000,0
PPG,20070125,0.322727272727272695,0.32727272727272724,0.322727272727272695,0.32727272727272724,35171,0
PPG,20070126,0.32727272727272724,0.32727272727272724,0.32727272727272724,0.32727272727272724,0,0
PPG,20070129,0.331818181818181785,0.33636363636363633,0.32727272727272724,0.33636363636363633,62698,0
PPG,20070130,0.33636363636363633,0.34545454545454542,0.33636363636363633,0.34545454545454542,33002,0
PPG,20070131,0.349999999999999965,0.349999999999999965,0.349999999999999965,0.349999999999999965,20000,0
PPG,20070201,0.34545454545454542,0.34545454545454542,0.34545454545454542,0.34545454545454542,2700,0
PPG,20070202,0.349999999999999965,0.349999999999999965,0.349999999999999965,0.349999999999999965,10000,0
PPG,20070205,0.349999999999999965,0.349999999999999965,0.33636363636363633,0.34545454545454542,91801,0
PPG,20070206,0.34545454545454542,0.34545454545454542,0.33636363636363633,0.33636363636363633,65816,0
PPG,20070207,0.33636363636363633,0.33636363636363633,0.33636363636363633,0.33636363636363633,8081,0
PPG,20070208,0.33636363636363633,0.33636363636363633,0.33636363636363633,0.33636363636363633,0,0
PPG,20070209,0.33636363636363633,0.33636363636363633,0.33636363636363633,0.33636363636363633,5400,0
PPG,20070212,0.33636363636363633,0.35454545454545451,0.33636363636363633,0.35454545454545451,21057,0
PPG,20070213,0.35454545454545451,0.35454545454545451,0.34545454545454542,0.34545454545454542,26944,0
PPG,20070214,0.34545454545454542,0.35454545454545451,0.34545454545454542,0.35454545454545451,21000,0
PPG,20070215,0.34545454545454542,0.34545454545454542,0.34545454545454542,0.34545454545454542,20900,0
PPG,20070216,0.33636363636363633,0.33636363636363633,0.31818181818181815,0.31818181818181815,69539,0
PPG,20070219,0.31818181818181815,0.31818181818181815,0.31818181818181815,0.31818181818181815,0,0
PPG,20070220,0.31818181818181815,0.31818181818181815,0.31818181818181815,0.31818181818181815,0,0
PPG,20070221,0.31818181818181815,0.31818181818181815,0.31818181818181815,0.31818181818181815,0,0
PPG,20070222,0.31818181818181815,0.31818181818181815,0.31818181818181815,0.31818181818181815,0,0
PPG,20070223,0.34545454545454542,0.34545454545454542,0.34545454545454542,0.34545454545454542,8000,0
PPG,20070226,0.331818181818181785,0.331818181818181785,0.331818181818181785,0.331818181818181785,5800,0
PPG,20070227,0.331818181818181785,0.331818181818181785,0.331818181818181785,0.331818181818181785,0,0
PPG,20070228,0.331818181818181785,0.340909090909090875,0.32727272727272724,0.340909090909090875,85001,0
PPG,20070301,0.340909090909090875,0.340909090909090875,0.340909090909090875,0.340909090909090875,23133,0
PPG,20070302,0.34545454545454542,0.34545454545454542,0.34545454545454542,0.34545454545454542,25000,0
PPG,20070305,0.340909090909090875,0.340909090909090875,0.32727272727272724,0.32727272727272724,50000,0
PPG,20070306,0.33636363636363633,0.33636363636363633,0.33636363636363633,0.33636363636363633,4000,0
PPG,20070307,0.33636363636363633,0.33636363636363633,0.33636363636363633,0.33636363636363633,6000,0
PPG,20070308,0.34545454545454542,0.35454545454545451,0.33636363636363633,0.35454545454545451,37000,0
PPG,20070309,0.35454545454545451,0.35454545454545451,0.35454545454545451,0.35454545454545451,0,0
PPG,20070312,0.35454545454545451,0.35454545454545451,0.35454545454545451,0.35454545454545451,0,0
PPG,20070313,0.35454545454545451,0.35454545454545451,0.35454545454545451,0.35454545454545451,0,0
PPG,20070314,0.35454545454545451,0.35454545454545451,0.35454545454545451,0.35454545454545451,0,0
PPG,20070315,0.35454545454545451,0.35454545454545451,0.35454545454545451,0.35454545454545451,0,0
PPG,20070316,0.35454545454545451,0.35454545454545451,0.35454545454545451,0.35454545454545451,0,0
PPG,20070319,0.34545454545454542,0.34545454545454542,0.34545454545454542,0.34545454545454542,11303,0
PPG,20070320,0.34545454545454542,0.34545454545454542,0.34545454545454542,0.34545454545454542,0,0
PPG,20070321,0.34545454545454542,0.34545454545454542,0.34545454545454542,0.34545454545454542,0,0
PPG,20070322,0.322727272727272695,0.322727272727272695,0.31818181818181815,0.31818181818181815,14125,0
PPG,20070323,0.31818181818181815,0.31818181818181815,0.31818181818181815,0.31818181818181815,0,0
PPG,20070326,0.340909090909090875,0.34545454545454542,0.340909090909090875,0.34545454545454542,26325,0
PPG,20070327,0.34545454545454542,0.34545454545454542,0.34545454545454542,0.34545454545454542,0,0
PPG,20070328,0.340909090909090875,0.340909090909090875,0.340909090909090875,0.340909090909090875,10000,0
PPG,20070329,0.340909090909090875,0.340909090909090875,0.340909090909090875,0.340909090909090875,0,0
PPG,20070330,0.340909090909090875,0.340909090909090875,0.340909090909090875,0.340909090909090875,0,0
PPG,20070402,0.34545454545454542,0.35454545454545451,0.31818181818181815,0.35454545454545451,88800,0
PPG,20070403,0.34545454545454542,0.34545454545454542,0.34545454545454542,0.34545454545454542,10200,0
PPG,20070404,0.34545454545454542,0.349999999999999965,0.32727272727272724,0.349999999999999965,18600,0
PPG,20070405,0.349999999999999965,0.349999999999999965,0.349999999999999965,0.349999999999999965,0,0
PPG,20070406,0.349999999999999965,0.349999999999999965,0.349999999999999965,0.349999999999999965,0,0
PPG,20070409,0.349999999999999965,0.349999999999999965,0.349999999999999965,0.349999999999999965,0,0
PPG,20070410,0.331818181818181785,0.331818181818181785,0.331818181818181785,0.331818181818181785,20000,0
PPG,20070411,0.331818181818181785,0.331818181818181785,0.322727272727272695,0.322727272727272695,209666,0
PPG,20070412,0.322727272727272695,0.322727272727272695,0.322727272727272695,0.322727272727272695,0,0
PPG,20070413,0.31818181818181815,0.31818181818181815,0.313636363636363605,0.313636363636363605,36000,0
PPG,20070416,0.33636363636363633,0.359090909090909055,0.31818181818181815,0.322727272727272695,29458,0
PPG,20070417,0.322727272727272695,0.322727272727272695,0.322727272727272695,0.322727272727272695,0,0
PPG,20070418,0.32727272727272724,0.32727272727272724,0.32727272727272724,0.32727272727272724,56813,0
PPG,20070419,0.32727272727272724,0.32727272727272724,0.32727272727272724,0.32727272727272724,0,0
PPG,20070420,0.32727272727272724,0.32727272727272724,0.32727272727272724,0.32727272727272724,0,0
PPG,20070423,0.32727272727272724,0.349999999999999965,0.32727272727272724,0.349999999999999965,17623,0
PPG,20070424,0.349999999999999965,0.349999999999999965,0.349999999999999965,0.349999999999999965,0,0
PPG,20070425,0.349999999999999965,0.349999999999999965,0.349999999999999965,0.349999999999999965,0,0
PPG,20070426,0.349999999999999965,0.349999999999999965,0.349999999999999965,0.349999999999999965,0,0
PPG,20070427,0.34545454545454542,0.34545454545454542,0.34545454545454542,0.34545454545454542,7000,0
PPG,20070430,0.34545454545454542,0.34545454545454542,0.34545454545454542,0.34545454545454542,0,0
PPG,20070501,0.34545454545454542,0.34545454545454542,0.34545454545454542,0.34545454545454542,0,0
PPG,20070502,0.32727272727272724,0.33636363636363633,0.32727272727272724,0.33636363636363633,25497,0
PPG,20070503,0.34545454545454542,0.34545454545454542,0.34545454545454542,0.34545454545454542,7000,0
PPG,20070504,0.34545454545454542,0.34545454545454542,0.34545454545454542,0.34545454545454542,0,0
PPG,20070507,0.322727272727272695,0.322727272727272695,0.322727272727272695,0.322727272727272695,3000,0
PPG,20070508,0.322727272727272695,0.322727272727272695,0.322727272727272695,0.322727272727272695,6000,0
PPG,20070509,0.322727272727272695,0.322727272727272695,0.322727272727272695,0.322727272727272695,0,0
PPG,20070510,0.322727272727272695,0.322727272727272695,0.322727272727272695,0.322727272727272695,0,0
PPG,20070511,0.32727272727272724,0.32727272727272724,0.32727272727272724,0.32727272727272724,8000,0
PPG,20070514,0.331818181818181785,0.33636363636363633,0.331818181818181785,0.331818181818181785,20828,0
PPG,20070515,0.331818181818181785,0.331818181818181785,0.322727272727272695,0.322727272727272695,20000,0
PPG,20070516,0.32727272727272724,0.331818181818181785,0.32727272727272724,0.331818181818181785,36000,0
PPG,20070517,0.32727272727272724,0.33636363636363633,0.32727272727272724,0.33636363636363633,16372,0
PPG,20070518,0.32727272727272724,0.32727272727272724,0.32727272727272724,0.32727272727272724,27300,0
PPG,20070521,0.32727272727272724,0.32727272727272724,0.32727272727272724,0.32727272727272724,0,0
PPG,20070522,0.32727272727272724,0.32727272727272724,0.32727272727272724,0.32727272727272724,0,0
PPG,20070523,0.32727272727272724,0.32727272727272724,0.32727272727272724,0.32727272727272724,0,0
PPG,20070524,0.31818181818181815,0.331818181818181785,0.31818181818181815,0.331818181818181785,88194,0
PPG,20070525,0.331818181818181785,0.331818181818181785,0.331818181818181785,0.331818181818181785,20000,0
PPG,20070528,0.322727272727272695,0.322727272727272695,0.322727272727272695,0.322727272727272695,5497,0
PPG,20070529,0.322727272727272695,0.322727272727272695,0.322727272727272695,0.322727272727272695,0,0
PPG,20070530,0.32727272727272724,0.32727272727272724,0.32727272727272724,0.32727272727272724,20994,0
PPG,20070531,0.322727272727272695,0.322727272727272695,0.31818181818181815,0.31818181818181815,8795,0
PPG,20070601,0.31818181818181815,0.31818181818181815,0.31818181818181815,0.31818181818181815,0,0
PPG,20070604,0.32727272727272724,0.32727272727272724,0.322727272727272695,0.322727272727272695,36000,0
PPG,20070605,0.31818181818181815,0.31818181818181815,0.313636363636363605,0.31818181818181815,26000,0
PPG,20070606,0.31818181818181815,0.331818181818181785,0.31818181818181815,0.331818181818181785,111473,0
PPG,20070607,0.313636363636363605,0.313636363636363605,0.313636363636363605,0.313636363636363605,10000,0
PPG,20070608,0.313636363636363605,0.340909090909090875,0.313636363636363605,0.340909090909090875,28000,0
PPG,20070611,0.340909090909090875,0.340909090909090875,0.340909090909090875,0.340909090909090875,0,0
PPG,20070612,0.340909090909090875,0.340909090909090875,0.340909090909090875,0.340909090909090875,0,0
PPG,20070613,0.340909090909090875,0.340909090909090875,0.340909090909090875,0.340909090909090875,0,0
PPG,20070614,0.340909090909090875,0.340909090909090875,0.340909090909090875,0.340909090909090875,0,0
PPG,20070615,0.33636363636363633,0.349999999999999965,0.33636363636363633,0.349999999999999965,69717,0
PPG,20070618,0.359090909090909055,0.359090909090909055,0.349999999999999965,0.349999999999999965,23735,0
PPG,20070619,0.349999999999999965,0.349999999999999965,0.349999999999999965,0.349999999999999965,0,0
PPG,20070620,0.349999999999999965,0.349999999999999965,0.34545454545454542,0.34545454545454542,13600,0
PPG,20070621,0.34545454545454542,0.34545454545454542,0.34545454545454542,0.34545454545454542,0,0
PPG,20070622,0.35454545454545451,0.35454545454545451,0.34545454545454542,0.34545454545454542,61248,0
PPG,20070625,0.32727272727272724,0.32727272727272724,0.31818181818181815,0.322727272727272695,55588,0
PPG,20070626,0.32727272727272724,0.32727272727272724,0.31818181818181815,0.31818181818181815,50650,0
PPG,20070627,0.32727272727272724,0.32727272727272724,0.31818181818181815,0.32727272727272724,150989,0
PPG,20070628,0.31818181818181815,0.32727272727272724,0.31818181818181815,0.32727272727272724,52392,0
PPG,20070629,0.32727272727272724,0.32727272727272724,0.32727272727272724,0.32727272727272724,34988,0
PPG,20070702,0.3636363636363636,0.368181818181818145,0.34545454545454542,0.3636363636363636,161975,0
PPG,20070703,0.368181818181818145,0.395454545454545415,0.3636363636363636,0.3636363636363636,207500,0
PPG,20070704,0.3636363636363636,0.3636363636363636,0.35454545454545451,0.3636363636363636,106338,0
PPG,20070705,0.3636363636363636,0.3636363636363636,0.3636363636363636,0.3636363636363636,55605,0
PPG,20070706,0.3636363636363636,0.404545454545454505,0.3636363636363636,0.404545454545454505,57597,0
PPG,20070709,0.39999999999999996,0.39999999999999996,0.39999999999999996,0.39999999999999996,15400,0
PPG,20070710,0.39090909090909087,0.39999999999999996,0.386363636363636325,0.39999999999999996,29200,0
PPG,20070711,0.38181818181818178,0.38181818181818178,0.37272727272727269,0.37272727272727269,27498,0
PPG,20070712,0.38181818181818178,0.39090909090909087,0.38181818181818178,0.39090909090909087,16449,0
PPG,20070713,0.38181818181818178,0.38181818181818178,0.38181818181818178,0.38181818181818178,29290,0
PPG,20070716,0.37272727272727269,0.37272727272727269,0.37272727272727269,0.37272727272727269,16000,0
PPG,20070717,0.368181818181818145,0.368181818181818145,0.3636363636363636,0.3636363636363636,32000,0
PPG,20070718,0.3636363636363636,0.368181818181818145,0.3636363636363636,0.368181818181818145,32000,0
PPG,20070719,0.404545454545454505,0.404545454545454505,0.368181818181818145,0.368181818181818145,116502,0
PPG,20070720,0.377272727272727235,0.38181818181818178,0.377272727272727235,0.38181818181818178,14000,0
PPG,20070723,0.38181818181818178,0.46363636363636359,0.38181818181818178,0.39999999999999996,464135,0
PPG,20070724,0.39999999999999996,0.40909090909090905,0.39999999999999996,0.40909090909090905,24494,0
PPG,20070725,0.41818181818181814,0.41818181818181814,0.41818181818181814,0.41818181818181814,3268,0
PPG,20070726,0.41818181818181814,0.42727272727272723,0.39999999999999996,0.42727272727272723,83192,0
PPG,20070727,0.41818181818181814,0.42727272727272723,0.41818181818181814,0.422727272727272685,121410,0
PPG,20070730,0.39999999999999996,0.39999999999999996,0.39090909090909087,0.39090909090909087,22900,0
PPG,20070731,0.40909090909090905,0.42727272727272723,0.39090909090909087,0.41818181818181814,85087,0
PPG,20070801,0.41818181818181814,0.41818181818181814,0.41818181818181814,0.41818181818181814,0,0
PPG,20070802,0.41818181818181814,0.41818181818181814,0.404545454545454505,0.404545454545454505,2248,0
PPG,20070803,0.413636363636363595,0.41818181818181814,0.40909090909090905,0.41818181818181814,69254,0
PPG,20070806,0.41818181818181814,0.41818181818181814,0.404545454545454505,0.40909090909090905,24390,0
PPG,20070807,0.40909090909090905,0.42727272727272723,0.40909090909090905,0.42727272727272723,13109,0
PPG,20070808,0.41818181818181814,0.42727272727272723,0.377272727272727235,0.42727272727272723,69073,0
PPG,20070809,0.43636363636363632,0.440909090909090865,0.42727272727272723,0.440909090909090865,64400,0
PPG,20070810,0.4545454545454545,0.46363636363636359,0.440909090909090865,0.440909090909090865,70000,0
PPG,20070813,0.46363636363636359,0.46363636363636359,0.449999999999999955,0.449999999999999955,30000,0
PPG,20070814,0.449999999999999955,0.47272727272727268,0.449999999999999955,0.4545454545454545,42600,0
PPG,20070815,0.4545454545454545,0.4545454545454545,0.44545454545454541,0.44545454545454541,66486,0
PPG,20070816,0.44545454545454541,0.44545454545454541,0.42727272727272723,0.42727272727272723,96200,0
PPG,20070817,0.40909090909090905,0.42727272727272723,0.40909090909090905,0.42727272727272723,11995,0
PPG,20070820,0.42727272727272723,0.4545454545454545,0.41818181818181814,0.4545454545454545,125800,0
PPG,20070821,0.41818181818181814,0.42727272727272723,0.40909090909090905,0.40909090909090905,124100,0
PPG,20070822,0.44545454545454541,0.44545454545454541,0.44545454545454541,0.44545454545454541,24900,0
PPG,20070823,0.43636363636363632,0.43636363636363632,0.43636363636363632,0.43636363636363632,15000,0
PPG,20070824,0.41818181818181814,0.4545454545454545,0.40909090909090905,0.4545454545454545,192500,0
PPG,20070827,0.4545454545454545,0.459090909090909045,0.4545454545454545,0.4545454545454545,119777,0
PPG,20070828,0.4545454545454545,0.4545454545454545,0.4545454545454545,0.4545454545454545,323,0
PPG,20070829,0.4545454545454545,0.4545454545454545,0.4545454545454545,0.4545454545454545,0,0
PPG,20070830,0.44545454545454541,0.44545454545454541,0.44545454545454541,0.44545454545454541,10000,0
PPG,20070831,0.44545454545454541,0.44545454545454541,0.44545454545454541,0.44545454545454541,0,0
PPG,20070903,0.44545454545454541,0.44545454545454541,0.440909090909090865,0.440909090909090865,32000,0
PPG,20070904,0.43636363636363632,0.4545454545454545,0.43636363636363632,0.44545454545454541,185425,0
PPG,20070905,0.4545454545454545,0.4545454545454545,0.44545454545454541,0.449999999999999955,197164,0
PPG,20070906,0.449999999999999955,0.4545454545454545,0.44545454545454541,0.4545454545454545,81000,0
PPG,20070907,0.449999999999999955,0.4545454545454545,0.449999999999999955,0.4545454545454545,28500,0
PPG,20070910,0.4545454545454545,0.459090909090909045,0.4545454545454545,0.459090909090909045,147254,0
PPG,20070911,0.46363636363636359,0.46363636363636359,0.46363636363636359,0.46363636363636359,36700,0
PPG,20070912,0.459090909090909045,0.459090909090909045,0.459090909090909045,0.459090909090909045,18950,0
PPG,20070913,0.46363636363636359,0.46363636363636359,0.459090909090909045,0.459090909090909045,84498,0
PPG,20070914,0.46363636363636359,0.46363636363636359,0.46363636363636359,0.46363636363636359,10000,0
PPG,20070917,0.468181818181818135,0.47272727272727268,0.468181818181818135,0.47272727272727268,44294,0
PPG,20070918,0.468181818181818135,0.468181818181818135,0.468181818181818135,0.468181818181818135,19152,0
PPG,20070919,0.468181818181818135,0.468181818181818135,0.468181818181818135,0.468181818181818135,0,0
PPG,20070920,0.477272727272727225,0.477272727272727225,0.477272727272727225,0.477272727272727225,15846,0
PPG,20070921,0.477272727272727225,0.48181818181818177,0.477272727272727225,0.48181818181818177,27000,0
PPG,20070924,0.48181818181818177,0.486363636363636315,0.48181818181818177,0.486363636363636315,10645,0
PPG,20070925,0.486363636363636315,0.486363636363636315,0.486363636363636315,0.486363636363636315,962,0
PPG,20070926,0.49090909090909086,0.49090909090909086,0.486363636363636315,0.486363636363636315,4676,0
PPG,20070927,0.49090909090909086,0.49090909090909086,0.48181818181818177,0.48181818181818177,7587,0
PPG,20070928,0.468181818181818135,0.48181818181818177,0.459090909090909045,0.459090909090909045,38433,0
PPG,20071001,0.459090909090909045,0.459090909090909045,0.459090909090909045,0.459090909090909045,0,0
PPG,20071002,0.477272727272727225,0.48181818181818177,0.477272727272727225,0.48181818181818177,36000,0
PPG,20071003,0.48181818181818177,0.48181818181818177,0.4545454545454545,0.4545454545454545,87071,0
PPG,20071004,0.4545454545454545,0.4545454545454545,0.4545454545454545,0.4545454545454545,30000,0
PPG,20071005,0.46363636363636359,0.47272727272727268,0.46363636363636359,0.47272727272727268,1324,0
PPG,20071008,0.46363636363636359,0.46363636363636359,0.4545454545454545,0.4545454545454545,67488,0
PPG,20071009,0.46363636363636359,0.47272727272727268,0.4545454545454545,0.4545454545454545,182401,0
PPG,20071010,0.4545454545454545,0.4545454545454545,0.4545454545454545,0.4545454545454545,0,0
PPG,20071011,0.46363636363636359,0.47272727272727268,0.46363636363636359,0.47272727272727268,30000,0
PPG,20071012,0.47272727272727268,0.47272727272727268,0.47272727272727268,0.47272727272727268,51544,0
PPG,20071015,0.477272727272727225,0.477272727272727225,0.477272727272727225,0.477272727272727225,10356,0
PPG,20071016,0.4545454545454545,0.4545454545454545,0.4545454545454545,0.4545454545454545,9000,0
PPG,20071017,0.4545454545454545,0.47272727272727268,0.4545454545454545,0.47272727272727268,109000,0
PPG,20071018,0.46363636363636359,0.46363636363636359,0.4545454545454545,0.4545454545454545,40687,0
PPG,20071019,0.4545454545454545,0.459090909090909045,0.4545454545454545,0.459090909090909045,24911,0
PPG,20071022,0.459090909090909045,0.459090909090909045,0.459090909090909045,0.459090909090909045,15589,0
PPG,20071023,0.459090909090909045,0.459090909090909045,0.4545454545454545,0.4545454545454545,54724,0
PPG,20071024,0.4545454545454545,0.46363636363636359,0.4545454545454545,0.4545454545454545,71500,0
PPG,20071025,0.4545454545454545,0.4545454545454545,0.4545454545454545,0.4545454545454545,20000,0
PPG,20071026,0.43636363636363632,0.43636363636363632,0.43636363636363632,0.43636363636363632,25000,0
PPG,20071029,0.4545454545454545,0.4545454545454545,0.4545454545454545,0.4545454545454545,5000,0
PPG,20071030,0.4545454545454545,0.4545454545454545,0.4545454545454545,0.4545454545454545,0,0
PPG,20071031,0.44545454545454541,0.44545454545454541,0.44545454545454541,0.44545454545454541,7500,0
PPG,20071101,0.449999999999999955,0.449999999999999955,0.44545454545454541,0.44545454545454541,36303,0
PPG,20071102,0.440909090909090865,0.44545454545454541,0.41818181818181814,0.44545454545454541,30000,0
PPG,20071105,0.42727272727272723,0.43636363636363632,0.422727272727272685,0.43636363636363632,34659,0
PPG,20071106,0.43636363636363632,0.4545454545454545,0.43636363636363632,0.43636363636363632,83500,0
PPG,20071107,0.43636363636363632,0.43636363636363632,0.43636363636363632,0.43636363636363632,0,0
PPG,20071108,0.43636363636363632,0.43636363636363632,0.43636363636363632,0.43636363636363632,66500,0
PPG,20071109,0.43636363636363632,0.43636363636363632,0.43636363636363632,0.43636363636363632,36785,0
PPG,20071112,0.43636363636363632,0.43636363636363632,0.43636363636363632,0.43636363636363632,15106,0
PPG,20071113,0.43636363636363632,0.43636363636363632,0.43636363636363632,0.43636363636363632,98109,0
PPG,20071114,0.43636363636363632,0.43636363636363632,0.42727272727272723,0.42727272727272723,36253,0
PPG,20071115,0.43636363636363632,0.43636363636363632,0.422727272727272685,0.43636363636363632,102323,0
PPG,20071116,0.43636363636363632,0.43636363636363632,0.43636363636363632,0.43636363636363632,0,0
PPG,20071119,0.43636363636363632,0.43636363636363632,0.43636363636363632,0.43636363636363632,0,0
PPG,20071120,0.43636363636363632,0.43636363636363632,0.43636363636363632,0.43636363636363632,596,0
PPG,20071121,0.42727272727272723,0.43636363636363632,0.42727272727272723,0.43636363636363632,45000,0
PPG,20071122,0.42727272727272723,0.42727272727272723,0.42727272727272723,0.42727272727272723,21000,0
PPG,20071123,0.42727272727272723,0.43636363636363632,0.42727272727272723,0.43636363636363632,29000,0
PPG,20071126,0.43636363636363632,0.43636363636363632,0.43636363636363632,0.43636363636363632,0,0
PPG,20071127,0.43636363636363632,0.43636363636363632,0.43636363636363632,0.43636363636363632,0,0
PPG,20071128,0.43636363636363632,0.43636363636363632,0.43636363636363632,0.43636363636363632,0,0
PPG,20071129,0.43636363636363632,0.43636363636363632,0.43636363636363632,0.43636363636363632,0,0
PPG,20071130,0.422727272727272685,0.422727272727272685,0.422727272727272685,0.422727272727272685,2000,0
PPG,20071203,0.422727272727272685,0.43636363636363632,0.422727272727272685,0.43636363636363632,17000,0
PPG,20071204,0.43636363636363632,0.43636363636363632,0.43636363636363632,0.43636363636363632,0,0
PPG,20071205,0.43636363636363632,0.43636363636363632,0.43636363636363632,0.43636363636363632,0,0
PPG,20071206,0.43636363636363632,0.43636363636363632,0.43636363636363632,0.43636363636363632,0,0
PPG,20071207,0.43636363636363632,0.43636363636363632,0.43636363636363632,0.43636363636363632,0,0
PPG,20071210,0.431818181818181775,0.431818181818181775,0.431818181818181775,0.431818181818181775,6000,0
PPG,20071211,0.42727272727272723,0.431818181818181775,0.41818181818181814,0.42727272727272723,42500,0
PPG,20071212,0.41818181818181814,0.41818181818181814,0.41818181818181814,0.41818181818181814,44000,0
PPG,20071213,0.422727272727272685,0.42727272727272723,0.422727272727272685,0.42727272727272723,8007,0
PPG,20071214,0.42727272727272723,0.42727272727272723,0.42727272727272723,0.42727272727272723,29893,0
PPG,20071217,0.422727272727272685,0.422727272727272685,0.40909090909090905,0.40909090909090905,121599,0
PPG,20071218,0.40909090909090905,0.40909090909090905,0.40909090909090905,0.40909090909090905,0,0
PPG,20071219,0.395454545454545415,0.40909090909090905,0.395454545454545415,0.40909090909090905,24000,0
PPG,20071220,0.39999999999999996,0.40909090909090905,0.39999999999999996,0.40909090909090905,25000,0
PPG,20071221,0.39090909090909087,0.39090909090909087,0.39090909090909087,0.39090909090909087,4100,0
PPG,20071224,0.40909090909090905,0.422727272727272685,0.40909090909090905,0.422727272727272685,25000,0
PPG,20071225,0.422727272727272685,0.422727272727272685,0.422727272727272685,0.422727272727272685,0,0
PPG,20071226,0.422727272727272685,0.422727272727272685,0.422727272727272685,0.422727272727272685,0,0
PPG,20071227,0.422727272727272685,0.422727272727272685,0.422727272727272685,0.422727272727272685,0,0
PPG,20071228,0.422727272727272685,0.422727272727272685,0.422727272727272685,0.422727272727272685,0,0
PPG,20071231,0.39999999999999996,0.422727272727272685,0.39999999999999996,0.422727272727272685,51000,0
PPG,20080101,0.422727272727272685,0.422727272727272685,0.422727272727272685,0.422727272727272685,0,0
PPG,20080102,0.422727272727272685,0.422727272727272685,0.422727272727272685,0.422727272727272685,0,0
PPG,20080103,0.413636363636363595,0.413636363636363595,0.40909090909090905,0.40909090909090905,12377,0
PPG,20080104,0.40909090909090905,0.40909090909090905,0.40909090909090905,0.40909090909090905,47623,0
PPG,20080107,0.404545454545454505,0.40909090909090905,0.39090909090909087,0.40909090909090905,54111,0
PPG,20080108,0.40909090909090905,0.40909090909090905,0.40909090909090905,0.40909090909090905,0,0
PPG,20080109,0.40909090909090905,0.40909090909090905,0.38181818181818178,0.38181818181818178,33750,0
PPG,20080110,0.413636363636363595,0.413636363636363595,0.413636363636363595,0.413636363636363595,1000,0
PPG,20080111,0.413636363636363595,0.413636363636363595,0.413636363636363595,0.413636363636363595,0,0
PPG,20080114,0.40909090909090905,0.413636363636363595,0.38181818181818178,0.413636363636363595,8000,0
PPG,20080115,0.40909090909090905,0.40909090909090905,0.40909090909090905,0.40909090909090905,3000,0
PPG,20080116,0.40909090909090905,0.40909090909090905,0.40909090909090905,0.40909090909090905,0,0
PPG,20080117,0.38181818181818178,0.39999999999999996,0.38181818181818178,0.39999999999999996,65000,0
PPG,20080118,0.39999999999999996,0.39999999999999996,0.39999999999999996,0.39999999999999996,0,0
PPG,20080121,0.39999999999999996,0.39999999999999996,0.39999999999999996,0.39999999999999996,0,0
PPG,20080122,0.38181818181818178,0.38181818181818178,0.38181818181818178,0.38181818181818178,3716,0
PPG,20080123,0.349999999999999965,0.3636363636363636,0.349999999999999965,0.3636363636363636,23500,0
PPG,20080124,0.35454545454545451,0.38181818181818178,0.35454545454545451,0.38181818181818178,50400,0
PPG,20080125,0.38181818181818178,0.38181818181818178,0.38181818181818178,0.38181818181818178,0,0
PPG,20080128,0.38181818181818178,0.38181818181818178,0.38181818181818178,0.38181818181818178,0,0
PPG,20080129,0.38181818181818178,0.38181818181818178,0.38181818181818178,0.38181818181818178,0,0
PPG,20080130,0.3636363636363636,0.3636363636363636,0.3636363636363636,0.3636363636363636,7500,0
PPG,20080131,0.3636363636363636,0.37272727272727269,0.3636363636363636,0.37272727272727269,21000,0
PPG,20080201,0.3636363636363636,0.3636363636363636,0.3636363636363636,0.3636363636363636,17500,0
PPG,20080204,0.3636363636363636,0.3636363636363636,0.3636363636363636,0.3636363636363636,14745,0
PPG,20080205,0.3636363636363636,0.37272727272727269,0.35454545454545451,0.35454545454545451,28166,0
PPG,20080206,0.35454545454545451,0.35454545454545451,0.35454545454545451,0.35454545454545451,5000,0
PPG,20080207,0.35454545454545451,0.35454545454545451,0.35454545454545451,0.35454545454545451,0,0
PPG,20080208,0.38181818181818178,0.38181818181818178,0.3636363636363636,0.3636363636363636,6000,0
PPG,20080211,0.3636363636363636,0.3636363636363636,0.3636363636363636,0.3636363636363636,0,0
PPG,20080212,0.3636363636363636,0.3636363636363636,0.3636363636363636,0.3636363636363636,0,0
PPG,20080213,0.3636363636363636,0.3636363636363636,0.3636363636363636,0.3636363636363636,0,0
PPG,20080214,0.35454545454545451,0.35454545454545451,0.35454545454545451,0.35454545454545451,34489,0
PPG,20080215,0.34545454545454542,0.34545454545454542,0.34545454545454542,0.34545454545454542,44518,0
PPG,20080218,0.34545454545454542,0.34545454545454542,0.34545454545454542,0.34545454545454542,0,0
PPG,20080219,0.34545454545454542,0.34545454545454542,0.34545454545454542,0.34545454545454542,30000,0
PPG,20080220,0.34545454545454542,0.34545454545454542,0.34545454545454542,0.34545454545454542,0,0
PPG,20080221,0.34545454545454542,0.34545454545454542,0.34545454545454542,0.34545454545454542,2500,0
PPG,20080222,0.34545454545454542,0.34545454545454542,0.34545454545454542,0.34545454545454542,0,0
PPG,20080225,0.34545454545454542,0.34545454545454542,0.34545454545454542,0.34545454545454542,0,0
PPG,20080226,0.34545454545454542,0.34545454545454542,0.34545454545454542,0.34545454545454542,0,0
PPG,20080227,0.331818181818181785,0.331818181818181785,0.331818181818181785,0.331818181818181785,10000,0
PPG,20080228,0.331818181818181785,0.3636363636363636,0.331818181818181785,0.34545454545454542,77777,0
PPG,20080229,0.34545454545454542,0.359090909090909055,0.34545454545454542,0.359090909090909055,40001,0
PPG,20080303,0.359090909090909055,0.359090909090909055,0.359090909090909055,0.359090909090909055,0,0
PPG,20080304,0.359090909090909055,0.359090909090909055,0.359090909090909055,0.359090909090909055,0,0
PPG,20080305,0.349999999999999965,0.35454545454545451,0.349999999999999965,0.35454545454545451,23000,0
PPG,20080306,0.35454545454545451,0.35454545454545451,0.35454545454545451,0.35454545454545451,0,0
PPG,20080307,0.34545454545454542,0.34545454545454542,0.34545454545454542,0.34545454545454542,19223,0
PPG,20080310,0.32727272727272724,0.32727272727272724,0.29999999999999997,0.29999999999999997,112660,0
PPG,20080311,0.29999999999999997,0.304545454545454515,0.2727272727272727,0.2727272727272727,116057,0
PPG,20080312,0.30909090909090906,0.31818181818181815,0.30909090909090906,0.31818181818181815,15300,0
PPG,20080313,0.31818181818181815,0.31818181818181815,0.31818181818181815,0.31818181818181815,0,0
PPG,20080314,0.31818181818181815,0.31818181818181815,0.31818181818181815,0.31818181818181815,0,0
PPG,20080317,0.29999999999999997,0.29999999999999997,0.29999999999999997,0.29999999999999997,17500,0
PPG,20080318,0.29999999999999997,0.29999999999999997,0.29999999999999997,0.29999999999999997,0,0
PPG,20080319,0.31818181818181815,0.35454545454545451,0.31818181818181815,0.35454545454545451,90877,0
PPG,20080320,0.35454545454545451,0.35454545454545451,0.34545454545454542,0.34545454545454542,22500,0
PPG,20080321,0.34545454545454542,0.34545454545454542,0.34545454545454542,0.34545454545454542,0,0
PPG,20080324,0.34545454545454542,0.34545454545454542,0.34545454545454542,0.34545454545454542,0,0
PPG,20080325,0.34545454545454542,0.35454545454545451,0.34545454545454542,0.34545454545454542,97500,0
PPG,20080326,0.35454545454545451,0.35454545454545451,0.35454545454545451,0.35454545454545451,2000,0
PPG,20080327,0.35454545454545451,0.37272727272727269,0.35454545454545451,0.37272727272727269,54923,0
PPG,20080328,0.37272727272727269,0.37272727272727269,0.37272727272727269,0.37272727272727269,0,0
PPG,20080331,0.3636363636363636,0.3636363636363636,0.35454545454545451,0.3636363636363636,85000,0
PPG,20080401,0.3636363636363636,0.3636363636363636,0.359090909090909055,0.359090909090909055,93688,0
PPG,20080402,0.34545454545454542,0.3636363636363636,0.34545454545454542,0.3636363636363636,68789,0
PPG,20080403,0.3636363636363636,0.3636363636363636,0.3636363636363636,0.3636363636363636,0,0
PPG,20080404,0.3636363636363636,0.3636363636363636,0.3636363636363636,0.3636363636363636,0,0
PPG,20080407,0.35454545454545451,0.35454545454545451,0.340909090909090875,0.35454545454545451,73500,0
PPG,20080408,0.35454545454545451,0.3636363636363636,0.35454545454545451,0.3636363636363636,20000,0
PPG,20080409,0.3636363636363636,0.3636363636363636,0.3636363636363636,0.3636363636363636,0,0
PPG,20080410,0.340909090909090875,0.340909090909090875,0.33636363636363633,0.33636363636363633,20023,0
PPG,20080411,0.33636363636363633,0.35454545454545451,0.33636363636363633,0.35454545454545451,68977,0
PPG,20080414,0.35454545454545451,0.35454545454545451,0.35454545454545451,0.35454545454545451,487,0
PPG,20080415,0.35454545454545451,0.35454545454545451,0.35454545454545451,0.35454545454545451,0,0
PPG,20080416,0.34545454545454542,0.35454545454545451,0.331818181818181785,0.35454545454545451,14175,0
PPG,20080417,0.35454545454545451,0.3636363636363636,0.35454545454545451,0.3636363636363636,84681,0
PPG,20080418,0.3636363636363636,0.3636363636363636,0.3636363636363636,0.3636363636363636,0,0
PPG,20080421,0.3636363636363636,0.377272727272727235,0.3636363636363636,0.377272727272727235,68499,0
PPG,20080422,0.3636363636363636,0.38181818181818178,0.3636363636363636,0.38181818181818178,10470,0
PPG,20080423,0.38181818181818178,0.38181818181818178,0.38181818181818178,0.38181818181818178,0,0
PPG,20080424,0.38181818181818178,0.38181818181818178,0.38181818181818178,0.38181818181818178,12750,0
PPG,20080425,0.38181818181818178,0.38181818181818178,0.38181818181818178,0.38181818181818178,0,0
PPG,20080428,0.38181818181818178,0.38181818181818178,0.38181818181818178,0.38181818181818178,0,0
PPG,20080429,0.34545454545454542,0.38181818181818178,0.34545454545454542,0.38181818181818178,476879,0
PPG,20080430,0.38181818181818178,0.38181818181818178,0.38181818181818178,0.38181818181818178,717500,0
PPG,20080501,0.38181818181818178,0.38181818181818178,0.38181818181818178,0.38181818181818178,1045000,0
PPG,20080502,0.38181818181818178,0.39090909090909087,0.38181818181818178,0.39090909090909087,138000,0
PPG,20080505,0.395454545454545415,0.395454545454545415,0.39090909090909087,0.39090909090909087,5000,0
PPG,20080506,0.39090909090909087,0.39090909090909087,0.39090909090909087,0.39090909090909087,16800,0
PPG,20080507,0.38181818181818178,0.40909090909090905,0.38181818181818178,0.40909090909090905,12661,0
PPG,20080508,0.40909090909090905,0.40909090909090905,0.40909090909090905,0.40909090909090905,0,0
PPG,20080509,0.38181818181818178,0.38181818181818178,0.38181818181818178,0.38181818181818178,6200,0
PPG,20080512,0.37272727272727269,0.37272727272727269,0.37272727272727269,0.37272727272727269,48000,0
PPG,20080513,0.37272727272727269,0.37272727272727269,0.37272727272727269,0.37272727272727269,0,0
PPG,20080514,0.38181818181818178,0.38181818181818178,0.38181818181818178,0.38181818181818178,17800,0
PPG,20080515,0.38181818181818178,0.38181818181818178,0.38181818181818178,0.38181818181818178,0,0
PPG,20080516,0.38181818181818178,0.38181818181818178,0.38181818181818178,0.38181818181818178,87909,0
PPG,20080519,0.38181818181818178,0.38181818181818178,0.38181818181818178,0.38181818181818178,0,0
PPG,20080520,0.38181818181818178,0.38181818181818178,0.38181818181818178,0.38181818181818178,30112,0
PPG,20080521,0.40909090909090905,0.40909090909090905,0.38181818181818178,0.38181818181818178,60100,0
PPG,20080522,0.38181818181818178,0.38181818181818178,0.38181818181818178,0.38181818181818178,15000,0
PPG,20080523,0.38181818181818178,0.38181818181818178,0.3636363636363636,0.3636363636363636,85427,0
PPG,20080526,0.3636363636363636,0.3636363636363636,0.3636363636363636,0.3636363636363636,70583,0
PPG,20080527,0.3636363636363636,0.3636363636363636,0.3636363636363636,0.3636363636363636,0,0
PPG,20080528,0.39090909090909087,0.39090909090909087,0.39090909090909087,0.39090909090909087,7500,0
PPG,20080529,0.39090909090909087,0.39090909090909087,0.39090909090909087,0.39090909090909087,0,0
PPG,20080530,0.39090909090909087,0.39090909090909087,0.39090909090909087,0.39090909090909087,0,0
PPG,20080602,0.39090909090909087,0.39090909090909087,0.39090909090909087,0.39090909090909087,0,0
PPG,20080603,0.39090909090909087,0.39090909090909087,0.39090909090909087,0.39090909090909087,0,0
PPG,20080604,0.39090909090909087,0.39090909090909087,0.39090909090909087,0.39090909090909087,0,0
PPG,20080605,0.39090909090909087,0.39090909090909087,0.39090909090909087,0.39090909090909087,0,0
PPG,20080606,0.39090909090909087,0.39090909090909087,0.39090909090909087,0.39090909090909087,0,0
PPG,20080609,0.39090909090909087,0.39090909090909087,0.39090909090909087,0.39090909090909087,0,0
PPG,20080610,0.39090909090909087,0.39090909090909087,0.39090909090909087,0.39090909090909087,0,0
PPG,20080611,0.39090909090909087,0.39090909090909087,0.39090909090909087,0.39090909090909087,0,0
PPG,20080612,0.39090909090909087,0.39090909090909087,0.39090909090909087,0.39090909090909087,0,0
PPG,20080613,0.39090909090909087,0.39090909090909087,0.39090909090909087,0.39090909090909087,0,0
PPG,20080616,0.37272727272727269,0.37272727272727269,0.37272727272727269,0.37272727272727269,6000,0
PPG,20080617,0.37272727272727269,0.37272727272727269,0.37272727272727269,0.37272727272727269,0,0
PPG,20080618,0.37272727272727269,0.37272727272727269,0.37272727272727269,0.37272727272727269,0,0
PPG,20080619,0.37272727272727269,0.37272727272727269,0.37272727272727269,0.37272727272727269,0,0
PPG,20080620,0.37272727272727269,0.37272727272727269,0.37272727272727269,0.37272727272727269,0,0
PPG,20080623,0.37272727272727269,0.37272727272727269,0.37272727272727269,0.37272727272727269,0,0
PPG,20080624,0.37272727272727269,0.37272727272727269,0.37272727272727269,0.37272727272727269,0,0
PPG,20080625,0.37272727272727269,0.37272727272727269,0.37272727272727269,0.37272727272727269,0,0
PPG,20080626,0.37272727272727269,0.37272727272727269,0.37272727272727269,0.37272727272727269,0,0
PPG,20080627,0.33636363636363633,0.3636363636363636,0.33636363636363633,0.3636363636363636,23796,0
PPG,20080630,0.3636363636363636,0.37272727272727269,0.3636363636363636,0.37272727272727269,56875,0
PPG,20080701,0.38181818181818178,0.38181818181818178,0.38181818181818178,0.38181818181818178,5000,0
PPG,20080702,0.37272727272727269,0.37272727272727269,0.3636363636363636,0.3636363636363636,4194,0
PPG,20080703,0.3636363636363636,0.3636363636363636,0.3636363636363636,0.3636363636363636,5460,0
PPG,20080704,0.3636363636363636,0.3636363636363636,0.3636363636363636,0.3636363636363636,0,0
PPG,20080707,0.3636363636363636,0.3636363636363636,0.3636363636363636,0.3636363636363636,0,0
PPG,20080708,0.34545454545454542,0.3636363636363636,0.34545454545454542,0.3636363636363636,11540,0
PPG,20080709,0.3636363636363636,0.3636363636363636,0.3636363636363636,0.3636363636363636,2460,0
PPG,20080710,0.3636363636363636,0.3636363636363636,0.3636363636363636,0.3636363636363636,0,0
PPG,20080711,0.3636363636363636,0.3636363636363636,0.3636363636363636,0.3636363636363636,0,0
PPG,20080714,0.3636363636363636,0.3636363636363636,0.3636363636363636,0.3636363636363636,0,0
PPG,20080715,0.359090909090909055,0.359090909090909055,0.359090909090909055,0.359090909090909055,5000,0
PPG,20080716,0.359090909090909055,0.359090909090909055,0.359090909090909055,0.359090909090909055,0,0
PPG,20080717,0.359090909090909055,0.359090909090909055,0.359090909090909055,0.359090909090909055,0,0
PPG,20080718,0.359090909090909055,0.359090909090909055,0.359090909090909055,0.359090909090909055,0,0
PPG,20080721,0.359090909090909055,0.359090909090909055,0.359090909090909055,0.359090909090909055,0,0
PPG,20080722,0.35454545454545451,0.359090909090909055,0.35454545454545451,0.359090909090909055,12600,0
PPG,20080723,0.359090909090909055,0.359090909090909055,0.359090909090909055,0.359090909090909055,0,0
PPG,20080724,0.359090909090909055,0.359090909090909055,0.359090909090909055,0.359090909090909055,5000,0
PPG,20080725,0.359090909090909055,0.359090909090909055,0.359090909090909055,0.359090909090909055,0,0
PPG,20080728,0.359090909090909055,0.359090909090909055,0.359090909090909055,0.359090909090909055,0,0
PPG,20080729,0.359090909090909055,0.359090909090909055,0.359090909090909055,0.359090909090909055,5012,0
PPG,20080730,0.359090909090909055,0.359090909090909055,0.359090909090909055,0.359090909090909055,0,0
PPG,20080731,0.359090909090909055,0.359090909090909055,0.359090909090909055,0.359090909090909055,0,0
PPG,20080801,0.359090909090909055,0.359090909090909055,0.359090909090909055,0.359090909090909055,0,0
PPG,20080804,0.35454545454545451,0.35454545454545451,0.35454545454545451,0.35454545454545451,20000,0
PPG,20080805,0.35454545454545451,0.35454545454545451,0.35454545454545451,0.35454545454545451,0,0
PPG,20080806,0.35454545454545451,0.35454545454545451,0.35454545454545451,0.35454545454545451,0,0
PPG,20080807,0.35454545454545451,0.35454545454545451,0.35454545454545451,0.35454545454545451,19780,0
PPG,20080808,0.35454545454545451,0.35454545454545451,0.35454545454545451,0.35454545454545451,7864,0
PPG,20080811,0.35454545454545451,0.35454545454545451,0.35454545454545451,0.35454545454545451,0,0
PPG,20080812,0.35454545454545451,0.35454545454545451,0.35454545454545451,0.35454545454545451,3590,0
PPG,20080813,0.35454545454545451,0.35454545454545451,0.35454545454545451,0.35454545454545451,0,0
PPG,20080814,0.35454545454545451,0.35454545454545451,0.35454545454545451,0.35454545454545451,0,0
PPG,20080815,0.35454545454545451,0.35454545454545451,0.35454545454545451,0.35454545454545451,0,0
PPG,20080818,0.35454545454545451,0.35454545454545451,0.35454545454545451,0.35454545454545451,0,0
PPG,20080819,0.35454545454545451,0.35454545454545451,0.35454545454545451,0.35454545454545451,0,0
PPG,20080820,0.35454545454545451,0.35454545454545451,0.35454545454545451,0.35454545454545451,0,0
PPG,20080821,0.35454545454545451,0.35454545454545451,0.35454545454545451,0.35454545454545451,0,0
PPG,20080822,0.35454545454545451,0.35454545454545451,0.35454545454545451,0.35454545454545451,0,0
PPG,20080825,0.35454545454545451,0.35454545454545451,0.35454545454545451,0.35454545454545451,0,0
PPG,20080826,0.35454545454545451,0.35454545454545451,0.35454545454545451,0.35454545454545451,0,0
PPG,20080827,0.35454545454545451,0.35454545454545451,0.35454545454545451,0.35454545454545451,0,0
PPG,20080828,0.35454545454545451,0.35454545454545451,0.35454545454545451,0.35454545454545451,0,0
PPG,20080829,0.35454545454545451,0.35454545454545451,0.35454545454545451,0.35454545454545451,0,0
PPG,20080901,0.35454545454545451,0.35454545454545451,0.35454545454545451,0.35454545454545451,0,0
PPG,20080902,0.29090909090909088,0.32727272727272724,0.2727272727272727,0.32727272727272724,68168,0
PPG,20080903,0.32727272727272724,0.32727272727272724,0.32727272727272724,0.32727272727272724,0,0
PPG,20080904,0.32727272727272724,0.32727272727272724,0.32727272727272724,0.32727272727272724,0,0
PPG,20080905,0.32727272727272724,0.32727272727272724,0.32727272727272724,0.32727272727272724,0,0
PPG,20080908,0.32727272727272724,0.32727272727272724,0.32727272727272724,0.32727272727272724,0,0
PPG,20080909,0.32727272727272724,0.32727272727272724,0.32727272727272724,0.32727272727272724,0,0
PPG,20080910,0.32727272727272724,0.32727272727272724,0.32727272727272724,0.32727272727272724,0,0
PPG,20080911,0.32727272727272724,0.32727272727272724,0.32727272727272724,0.32727272727272724,0,0
PPG,20080912,0.32727272727272724,0.32727272727272724,0.32727272727272724,0.32727272727272724,0,0
PPG,20080915,0.32727272727272724,0.32727272727272724,0.32727272727272724,0.32727272727272724,0,0
PPG,20080916,0.2727272727272727,0.2727272727272727,0.2727272727272727,0.2727272727272727,227572,0
PPG,20080917,0.2727272727272727,0.2727272727272727,0.2727272727272727,0.2727272727272727,0,0
PPG,20080918,0.2727272727272727,0.2727272727272727,0.2727272727272727,0.2727272727272727,0,0
PPG,20080919,0.29999999999999997,0.29999999999999997,0.29999999999999997,0.29999999999999997,2500,0
PPG,20080922,0.29999999999999997,0.29999999999999997,0.29999999999999997,0.29999999999999997,0,0
PPG,20080923,0.30909090909090906,0.30909090909090906,0.30909090909090906,0.30909090909090906,18100,0
PPG,20080924,0.31818181818181815,0.31818181818181815,0.31818181818181815,0.31818181818181815,1472,0
PPG,20080925,0.32727272727272724,0.32727272727272724,0.32727272727272724,0.32727272727272724,3000,0
PPG,20080926,0.32727272727272724,0.32727272727272724,0.32727272727272724,0.32727272727272724,7500,0
PPG,20080929,0.32727272727272724,0.32727272727272724,0.32727272727272724,0.32727272727272724,0,0
PPG,20080930,0.29090909090909088,0.32727272727272724,0.29090909090909088,0.32727272727272724,9288,0
PPG,20081001,0.32727272727272724,0.32727272727272724,0.32727272727272724,0.32727272727272724,0,0
PPG,20081002,0.32727272727272724,0.32727272727272724,0.32727272727272724,0.32727272727272724,0,0
PPG,20081003,0.32727272727272724,0.32727272727272724,0.32727272727272724,0.32727272727272724,0,0
PPG,20081006,0.32727272727272724,0.32727272727272724,0.32727272727272724,0.32727272727272724,0,0
PPG,20081007,0.29090909090909088,0.29090909090909088,0.29090909090909088,0.29090909090909088,8712,0
PPG,20081008,0.25454545454545452,0.29090909090909088,0.25454545454545452,0.29090909090909088,16788,0
PPG,20081009,0.29090909090909088,0.29090909090909088,0.29090909090909088,0.29090909090909088,3212,0
PPG,20081010,0.14545454545454544,0.2727272727272727,0.14545454545454544,0.2727272727272727,2091,0
PPG,20081013,0.2727272727272727,0.2727272727272727,0.2727272727272727,0.2727272727272727,0,0
PPG,20081014,0.2727272727272727,0.2727272727272727,0.2727272727272727,0.2727272727272727,0,0
PPG,20081015,0.2727272727272727,0.2727272727272727,0.2727272727272727,0.2727272727272727,0,0
PPG,20081016,0.2727272727272727,0.2727272727272727,0.2727272727272727,0.2727272727272727,0,0
PPG,20081017,0.2727272727272727,0.2727272727272727,0.2727272727272727,0.2727272727272727,0,0
PPG,20081020,0.2727272727272727,0.2727272727272727,0.2727272727272727,0.2727272727272727,0,0
PPG,20081021,0.2727272727272727,0.2727272727272727,0.2727272727272727,0.2727272727272727,0,0
PPG,20081022,0.2727272727272727,0.2727272727272727,0.2727272727272727,0.2727272727272727,0,0
PPG,20081023,0.2727272727272727,0.2727272727272727,0.2727272727272727,0.2727272727272727,0,0
PPG,20081024,0.22727272727272725,0.22727272727272725,0.1818181818181818,0.1818181818181818,61181,0
PPG,20081027,0.1818181818181818,0.1818181818181818,0.1818181818181818,0.1818181818181818,0,0
PPG,20081028,0.1818181818181818,0.1818181818181818,0.1818181818181818,0.1818181818181818,17271,0
PPG,20081029,0.23636363636363634,0.23636363636363634,0.19090909090909089,0.19090909090909089,23500,0
PPG,20081030,0.19090909090909089,0.19090909090909089,0.19090909090909089,0.19090909090909089,0,0
PPG,20081031,0.19090909090909089,0.19090909090909089,0.19090909090909089,0.19090909090909089,0,0
PPG,20081103,0.19090909090909089,0.19090909090909089,0.19090909090909089,0.19090909090909089,0,0
PPG,20081104,0.19090909090909089,0.19090909090909089,0.19090909090909089,0.19090909090909089,0,0
PPG,20081105,0.19090909090909089,0.19090909090909089,0.19090909090909089,0.19090909090909089,0,0
PPG,20081106,0.19090909090909089,0.19090909090909089,0.19090909090909089,0.19090909090909089,0,0
PPG,20081107,0.19090909090909089,0.19090909090909089,0.19090909090909089,0.19090909090909089,0,0
PPG,20081110,0.19090909090909089,0.19090909090909089,0.19090909090909089,0.19090909090909089,0,0
PPG,20081111,0.19999999999999998,0.19999999999999998,0.19090909090909089,0.19090909090909089,10000,0
PPG,20081112,0.19090909090909089,0.19090909090909089,0.19090909090909089,0.19090909090909089,0,0
PPG,20081113,0.19090909090909089,0.19090909090909089,0.19090909090909089,0.19090909090909089,14591,0
PPG,20081114,0.19090909090909089,0.19090909090909089,0.16363636363636362,0.16363636363636362,31268,0
PPG,20081117,0.16363636363636362,0.16363636363636362,0.16363636363636362,0.16363636363636362,0,0
PPG,20081118,0.16363636363636362,0.16363636363636362,0.16363636363636362,0.16363636363636362,0,0
PPG,20081119,0.16363636363636362,0.16363636363636362,0.16363636363636362,0.16363636363636362,0,0
PPG,20081120,0.159090909090909075,0.159090909090909075,0.159090909090909075,0.159090909090909075,2381,0
PPG,20081121,0.159090909090909075,0.159090909090909075,0.159090909090909075,0.159090909090909075,7619,0
PPG,20081124,0.149999999999999985,0.149999999999999985,0.149999999999999985,0.149999999999999985,6705,0
PPG,20081125,0.149999999999999985,0.149999999999999985,0.149999999999999985,0.149999999999999985,0,0
PPG,20081126,0.149999999999999985,0.149999999999999985,0.149999999999999985,0.149999999999999985,0,0
PPG,20081127,0.159090909090909075,0.159090909090909075,0.159090909090909075,0.159090909090909075,25000,0
PPG,20081128,0.159090909090909075,0.159090909090909075,0.159090909090909075,0.159090909090909075,0,0
PPG,20081201,0.16363636363636362,0.16363636363636362,0.16363636363636362,0.16363636363636362,22000,0
PPG,20081202,0.16363636363636362,0.16363636363636362,0.16363636363636362,0.16363636363636362,5000,0
PPG,20081203,0.16363636363636362,0.16363636363636362,0.16363636363636362,0.16363636363636362,3295,0
PPG,20081204,0.16363636363636362,0.16363636363636362,0.16363636363636362,0.16363636363636362,0,0
PPG,20081205,0.16363636363636362,0.16363636363636362,0.16363636363636362,0.16363636363636362,0,0
PPG,20081208,0.16363636363636362,0.16363636363636362,0.16363636363636362,0.16363636363636362,15000,0
PPG,20081209,0.16363636363636362,0.16363636363636362,0.16363636363636362,0.16363636363636362,0,0
PPG,20081210,0.16363636363636362,0.16363636363636362,0.16363636363636362,0.16363636363636362,24859,0
PPG,20081211,0.15454545454545453,0.15454545454545453,0.15454545454545453,0.15454545454545453,10000,0
PPG,20081212,0.15454545454545453,0.15454545454545453,0.15454545454545453,0.15454545454545453,0,0
PPG,20081215,0.15454545454545453,0.15454545454545453,0.15454545454545453,0.15454545454545453,0,0
PPG,20081216,0.16363636363636362,0.16363636363636362,0.16363636363636362,0.16363636363636362,4000,0
PPG,20081217,0.16363636363636362,0.16363636363636362,0.16363636363636362,0.16363636363636362,0,0
PPG,20081218,0.15454545454545453,0.15454545454545453,0.15454545454545453,0.15454545454545453,6500,0
PPG,20081219,0.15454545454545453,0.15454545454545453,0.15454545454545453,0.15454545454545453,3500,0
PPG,20081222,0.149999999999999985,0.149999999999999985,0.14545454545454544,0.14545454545454544,22392,0
PPG,20081223,0.14545454545454544,0.14545454545454544,0.14545454545454544,0.14545454545454544,0,0
PPG,20081224,0.14545454545454544,0.14545454545454544,0.14545454545454544,0.14545454545454544,0,0
PPG,20081225,0.14545454545454544,0.14545454545454544,0.14545454545454544,0.14545454545454544,0,0
PPG,20081226,0.14545454545454544,0.14545454545454544,0.14545454545454544,0.14545454545454544,0,0
PPG,20081229,0.14545454545454544,0.14545454545454544,0.14545454545454544,0.14545454545454544,0,0
PPG,20081230,0.14545454545454544,0.14545454545454544,0.14545454545454544,0.14545454545454544,0,0
PPG,20081231,0.15454545454545453,0.16363636363636362,0.15454545454545453,0.16363636363636362,6000,0
PPG,20090101,0.16363636363636362,0.16363636363636362,0.16363636363636362,0.16363636363636362,0,0
PPG,20090102,0.16363636363636362,0.16363636363636362,0.16363636363636362,0.16363636363636362,0,0
PPG,20090105,0.16363636363636362,0.16363636363636362,0.16363636363636362,0.16363636363636362,0,0
PPG,20090106,0.16363636363636362,0.16363636363636362,0.16363636363636362,0.16363636363636362,45000,0
PPG,20090107,0.16363636363636362,0.16363636363636362,0.16363636363636362,0.16363636363636362,0,0
PPG,20090108,0.16363636363636362,0.16363636363636362,0.16363636363636362,0.16363636363636362,0,0
PPG,20090109,0.16363636363636362,0.16363636363636362,0.16363636363636362,0.16363636363636362,0,0
PPG,20090112,0.16363636363636362,0.16363636363636362,0.16363636363636362,0.16363636363636362,0,0
PPG,20090113,0.16363636363636362,0.16363636363636362,0.16363636363636362,0.16363636363636362,0,0
PPG,20090114,0.16363636363636362,0.16363636363636362,0.16363636363636362,0.16363636363636362,0,0
PPG,20090115,0.16363636363636362,0.16363636363636362,0.16363636363636362,0.16363636363636362,20000,0
PPG,20090116,0.16363636363636362,0.16363636363636362,0.16363636363636362,0.16363636363636362,0,0
PPG,20090119,0.16363636363636362,0.16363636363636362,0.16363636363636362,0.16363636363636362,0,0
PPG,20090120,0.16363636363636362,0.16363636363636362,0.16363636363636362,0.16363636363636362,0,0
PPG,20090121,0.16363636363636362,0.16363636363636362,0.16363636363636362,0.16363636363636362,0,0
PPG,20090122,0.16363636363636362,0.16363636363636362,0.16363636363636362,0.16363636363636362,0,0
PPG,20090123,0.16363636363636362,0.16363636363636362,0.16363636363636362,0.16363636363636362,0,0
PPG,20090126,0.16363636363636362,0.16363636363636362,0.16363636363636362,0.16363636363636362,0,0
PPG,20090127,0.16363636363636362,0.16363636363636362,0.16363636363636362,0.16363636363636362,0,0
PPG,20090128,0.16363636363636362,0.16363636363636362,0.16363636363636362,0.16363636363636362,0,0
PPG,20090129,0.16363636363636362,0.16363636363636362,0.16363636363636362,0.16363636363636362,0,0
PPG,20090130,0.16363636363636362,0.16363636363636362,0.16363636363636362,0.16363636363636362,0,0
PPG,20090202,0.16363636363636362,0.16363636363636362,0.16363636363636362,0.16363636363636362,0,0
PPG,20090203,0.16363636363636362,0.16363636363636362,0.16363636363636362,0.16363636363636362,0,0
PPG,20090204,0.16363636363636362,0.16363636363636362,0.16363636363636362,0.16363636363636362,0,0
PPG,20090205,0.16363636363636362,0.16363636363636362,0.16363636363636362,0.16363636363636362,0,0
PPG,20090206,0.15454545454545453,0.15454545454545453,0.14545454545454544,0.14545454545454544,43000,0
PPG,20090209,0.14545454545454544,0.14545454545454544,0.14545454545454544,0.14545454545454544,5000,0
PPG,20090210,0.14545454545454544,0.14545454545454544,0.14545454545454544,0.14545454545454544,0,0
PPG,20090211,0.14545454545454544,0.14545454545454544,0.14545454545454544,0.14545454545454544,0,0
PPG,20090212,0.14545454545454544,0.14545454545454544,0.14545454545454544,0.14545454545454544,0,0
PPG,20090213,0.14545454545454544,0.14545454545454544,0.14545454545454544,0.14545454545454544,0,0
PPG,20090216,0.149999999999999985,0.149999999999999985,0.149999999999999985,0.149999999999999985,11625,0
PPG,20090217,0.149999999999999985,0.149999999999999985,0.149999999999999985,0.149999999999999985,0,0
PPG,20090218,0.149999999999999985,0.149999999999999985,0.149999999999999985,0.149999999999999985,8000,0
PPG,20090219,0.149999999999999985,0.149999999999999985,0.140909090909090895,0.140909090909090895,18624,0
PPG,20090220,0.140909090909090895,0.140909090909090895,0.140909090909090895,0.140909090909090895,0,0
PPG,20090223,0.140909090909090895,0.140909090909090895,0.140909090909090895,0.140909090909090895,0,0
PPG,20090224,0.140909090909090895,0.140909090909090895,0.140909090909090895,0.140909090909090895,0,0
PPG,20090225,0.140909090909090895,0.140909090909090895,0.140909090909090895,0.140909090909090895,0,0
PPG,20090226,0.140909090909090895,0.140909090909090895,0.140909090909090895,0.140909090909090895,0,0
PPG,20090227,0.140909090909090895,0.140909090909090895,0.140909090909090895,0.140909090909090895,0,0
PPG,20090302,0.140909090909090895,0.140909090909090895,0.140909090909090895,0.140909090909090895,20000,0
PPG,20090303,0.140909090909090895,0.140909090909090895,0.13636363636363635,0.13636363636363635,20000,0
PPG,20090304,0.15454545454545453,0.15454545454545453,0.15454545454545453,0.15454545454545453,6000,0
PPG,20090305,0.15454545454545453,0.15454545454545453,0.15454545454545453,0.15454545454545453,0,0
PPG,20090306,0.15454545454545453,0.15454545454545453,0.15454545454545453,0.15454545454545453,0,0
PPG,20090309,0.15454545454545453,0.15454545454545453,0.15454545454545453,0.15454545454545453,0,0
PPG,20090310,0.15454545454545453,0.15454545454545453,0.15454545454545453,0.15454545454545453,0,0
PPG,20090311,0.15454545454545453,0.15454545454545453,0.15454545454545453,0.15454545454545453,39000,0
PPG,20090312,0.15454545454545453,0.15454545454545453,0.15454545454545453,0.15454545454545453,0,0
PPG,20090313,0.15454545454545453,0.15454545454545453,0.13636363636363635,0.13636363636363635,30000,0
PPG,20090316,0.13636363636363635,0.13636363636363635,0.13636363636363635,0.13636363636363635,2620,0
PPG,20090317,0.13636363636363635,0.13636363636363635,0.13636363636363635,0.13636363636363635,10000,0
PPG,20090318,0.13636363636363635,0.13636363636363635,0.13636363636363635,0.13636363636363635,131,0
PPG,20090319,0.13636363636363635,0.13636363636363635,0.13636363636363635,0.13636363636363635,0,0
PPG,20090320,0.13636363636363635,0.13636363636363635,0.13636363636363635,0.13636363636363635,0,0
PPG,20090323,0.13636363636363635,0.13636363636363635,0.13636363636363635,0.13636363636363635,0,0
PPG,20090324,0.13636363636363635,0.13636363636363635,0.13636363636363635,0.13636363636363635,0,0
PPG,20090325,0.13636363636363635,0.13636363636363635,0.13636363636363635,0.13636363636363635,0,0
PPG,20090326,0.13636363636363635,0.13636363636363635,0.13636363636363635,0.13636363636363635,0,0
PPG,20090327,0.13636363636363635,0.13636363636363635,0.13636363636363635,0.13636363636363635,0,0
PPG,20090330,0.113636363636363625,0.113636363636363625,0.113636363636363625,0.113636363636363625,30000,0
PPG,20090331,0.113636363636363625,0.113636363636363625,0.113636363636363625,0.113636363636363625,0,0
PPG,20090401,0.10909090909090908,0.10909090909090908,0.10909090909090908,0.10909090909090908,1500,0
PPG,20090402,0.10909090909090908,0.10909090909090908,0.10909090909090908,0.10909090909090908,0,0
PPG,20090403,0.11818181818181817,0.13636363636363635,0.11818181818181817,0.13636363636363635,70300,0
PPG,20090406,0.13636363636363635,0.13636363636363635,0.13636363636363635,0.13636363636363635,62400,0
PPG,20090407,0.13636363636363635,0.13636363636363635,0.13636363636363635,0.13636363636363635,0,0
PPG,20090408,0.11818181818181817,0.11818181818181817,0.11818181818181817,0.11818181818181817,37000,0
PPG,20090409,0.11818181818181817,0.11818181818181817,0.11818181818181817,0.11818181818181817,0,0
PPG,20090410,0.11818181818181817,0.11818181818181817,0.11818181818181817,0.11818181818181817,0,0
PPG,20090413,0.11818181818181817,0.11818181818181817,0.11818181818181817,0.11818181818181817,0,0
PPG,20090414,0.11818181818181817,0.11818181818181817,0.11818181818181817,0.11818181818181817,0,0
PPG,20090415,0.11818181818181817,0.11818181818181817,0.11818181818181817,0.11818181818181817,0,0
PPG,20090416,0.11818181818181817,0.11818181818181817,0.11818181818181817,0.11818181818181817,0,0
PPG,20090417,0.14545454545454544,0.14545454545454544,0.14545454545454544,0.14545454545454544,6889,0
PPG,20090420,0.14545454545454544,0.14545454545454544,0.14545454545454544,0.14545454545454544,0,0
PPG,20090421,0.14545454545454544,0.14545454545454544,0.14545454545454544,0.14545454545454544,0,0
PPG,20090422,0.14545454545454544,0.14545454545454544,0.14545454545454544,0.14545454545454544,0,0
PPG,20090423,0.14545454545454544,0.14545454545454544,0.14545454545454544,0.14545454545454544,0,0
PPG,20090424,0.122727272727272715,0.122727272727272715,0.122727272727272715,0.122727272727272715,4601,0
PPG,20090427,0.122727272727272715,0.122727272727272715,0.122727272727272715,0.122727272727272715,0,0
PPG,20090428,0.122727272727272715,0.122727272727272715,0.122727272727272715,0.122727272727272715,0,0
PPG,20090429,0.122727272727272715,0.122727272727272715,0.122727272727272715,0.122727272727272715,0,0
PPG,20090430,0.122727272727272715,0.122727272727272715,0.122727272727272715,0.122727272727272715,0,0
PPG,20090501,0.122727272727272715,0.122727272727272715,0.122727272727272715,0.122727272727272715,0,0
PPG,20090504,0.122727272727272715,0.122727272727272715,0.122727272727272715,0.122727272727272715,0,0
PPG,20090505,0.122727272727272715,0.122727272727272715,0.122727272727272715,0.122727272727272715,0,0
PPG,20090506,0.122727272727272715,0.122727272727272715,0.122727272727272715,0.122727272727272715,4000,0
PPG,20090507,0.122727272727272715,0.122727272727272715,0.122727272727272715,0.122727272727272715,0,0
PPG,20090508,0.122727272727272715,0.122727272727272715,0.122727272727272715,0.122727272727272715,0,0
PPG,20090511,0.122727272727272715,0.122727272727272715,0.11818181818181817,0.11818181818181817,31399,0
PPG,20090512,0.11818181818181817,0.11818181818181817,0.11818181818181817,0.11818181818181817,0,0
PPG,20090513,0.11818181818181817,0.11818181818181817,0.11818181818181817,0.11818181818181817,0,0
PPG,20090514,0.12727272727272726,0.12727272727272726,0.12727272727272726,0.12727272727272726,10000,0
PPG,20090515,0.12727272727272726,0.12727272727272726,0.12727272727272726,0.12727272727272726,0,0
PPG,20090518,0.12727272727272726,0.12727272727272726,0.12727272727272726,0.12727272727272726,10000,0
PPG,20090519,0.11818181818181817,0.11818181818181817,0.11818181818181817,0.11818181818181817,41388,0
PPG,20090520,0.11818181818181817,0.11818181818181817,0.11818181818181817,0.11818181818181817,0,0
PPG,20090521,0.11818181818181817,0.11818181818181817,0.11818181818181817,0.11818181818181817,0,0
PPG,20090522,0.122727272727272715,0.122727272727272715,0.122727272727272715,0.122727272727272715,53000,0
PPG,20090525,0.122727272727272715,0.122727272727272715,0.122727272727272715,0.122727272727272715,0,0
PPG,20090526,0.122727272727272715,0.122727272727272715,0.122727272727272715,0.122727272727272715,0,0
PPG,20090527,0.122727272727272715,0.122727272727272715,0.122727272727272715,0.122727272727272715,0,0
PPG,20090528,0.122727272727272715,0.122727272727272715,0.122727272727272715,0.122727272727272715,0,0
PPG,20090529,0.122727272727272715,0.122727272727272715,0.122727272727272715,0.122727272727272715,0,0
PPG,20090601,0.122727272727272715,0.122727272727272715,0.122727272727272715,0.122727272727272715,0,0
PPG,20090602,0.122727272727272715,0.122727272727272715,0.122727272727272715,0.122727272727272715,0,0
PPG,20090603,0.122727272727272715,0.122727272727272715,0.122727272727272715,0.122727272727272715,0,0
PPG,20090604,0.122727272727272715,0.122727272727272715,0.122727272727272715,0.122727272727272715,0,0
PPG,20090605,0.122727272727272715,0.122727272727272715,0.122727272727272715,0.122727272727272715,0,0
PPG,20090608,0.122727272727272715,0.122727272727272715,0.122727272727272715,0.122727272727272715,0,0
PPG,20090609,0.122727272727272715,0.122727272727272715,0.122727272727272715,0.122727272727272715,5200,0
PPG,20090610,0.122727272727272715,0.122727272727272715,0.122727272727272715,0.122727272727272715,0,0
PPG,20090611,0.13636363636363635,0.13636363636363635,0.11818181818181817,0.11818181818181817,42647,0
PPG,20090612,0.11818181818181817,0.11818181818181817,0.11818181818181817,0.11818181818181817,0,0
PPG,20090615,0.11818181818181817,0.11818181818181817,0.11818181818181817,0.11818181818181817,10000,0
PPG,20090616,0.12727272727272726,0.12727272727272726,0.12727272727272726,0.12727272727272726,21499,0
PPG,20090617,0.12727272727272726,0.12727272727272726,0.12727272727272726,0.12727272727272726,0,0
PPG,20090618,0.12727272727272726,0.12727272727272726,0.113636363636363625,0.113636363636363625,56000,0
PPG,20090619,0.113636363636363625,0.113636363636363625,0.113636363636363625,0.113636363636363625,0,0
PPG,20090622,0.113636363636363625,0.113636363636363625,0.113636363636363625,0.113636363636363625,0,0
PPG,20090623,0.149999999999999985,0.149999999999999985,0.149999999999999985,0.149999999999999985,5000,0
PPG,20090624,0.149999999999999985,0.149999999999999985,0.149999999999999985,0.149999999999999985,1400,0
PPG,20090625,0.149999999999999985,0.149999999999999985,0.149999999999999985,0.149999999999999985,3600,0
PPG,20090626,0.149999999999999985,0.149999999999999985,0.149999999999999985,0.149999999999999985,0,0
PPG,20090629,0.149999999999999985,0.149999999999999985,0.149999999999999985,0.149999999999999985,0,0
PPG,20090630,0.149999999999999985,0.149999999999999985,0.149999999999999985,0.149999999999999985,0,0
PPG,20090701,0.11818181818181817,0.11818181818181817,0.11818181818181817,0.11818181818181817,36579,0
PPG,20090702,0.11818181818181817,0.11818181818181817,0.11818181818181817,0.11818181818181817,0,0
PPG,20090703,0.11818181818181817,0.11818181818181817,0.11818181818181817,0.11818181818181817,0,0
PPG,20090706,0.11818181818181817,0.11818181818181817,0.11818181818181817,0.11818181818181817,0,0
PPG,20090707,0.11818181818181817,0.11818181818181817,0.11818181818181817,0.11818181818181817,0,0
PPG,20090708,0.11818181818181817,0.11818181818181817,0.11818181818181817,0.11818181818181817,0,0
PPG,20090709,0.11818181818181817,0.11818181818181817,0.11818181818181817,0.11818181818181817,0,0
PPG,20090710,0.11818181818181817,0.11818181818181817,0.11818181818181817,0.11818181818181817,0,0
PPG,20090713,0.11818181818181817,0.11818181818181817,0.11818181818181817,0.11818181818181817,0,0
PPG,20090714,0.113636363636363625,0.113636363636363625,0.113636363636363625,0.113636363636363625,33500,0
PPG,20090715,0.113636363636363625,0.113636363636363625,0.113636363636363625,0.113636363636363625,0,0
PPG,20090716,0.113636363636363625,0.113636363636363625,0.113636363636363625,0.113636363636363625,0,0
PPG,20090717,0.13636363636363635,0.14545454545454544,0.13636363636363635,0.13636363636363635,101167,0
PPG,20090720,0.13636363636363635,0.13636363636363635,0.13636363636363635,0.13636363636363635,14350,0
PPG,20090721,0.13636363636363635,0.13636363636363635,0.13636363636363635,0.13636363636363635,40000,0
PPG,20090722,0.13636363636363635,0.13636363636363635,0.13636363636363635,0.13636363636363635,0,0
PPG,20090723,0.13636363636363635,0.13636363636363635,0.13636363636363635,0.13636363636363635,0,0
PPG,20090724,0.13636363636363635,0.13636363636363635,0.13636363636363635,0.13636363636363635,0,0
PPG,20090727,0.13636363636363635,0.14545454545454544,0.13636363636363635,0.14545454545454544,100570,0
PPG,20090728,0.159090909090909075,0.159090909090909075,0.159090909090909075,0.159090909090909075,4430,0
PPG,20090729,0.159090909090909075,0.159090909090909075,0.159090909090909075,0.159090909090909075,0,0
PPG,20090730,0.159090909090909075,0.159090909090909075,0.159090909090909075,0.159090909090909075,0,0
PPG,20090731,0.159090909090909075,0.159090909090909075,0.159090909090909075,0.159090909090909075,0,0
PPG,20090803,0.159090909090909075,0.159090909090909075,0.159090909090909075,0.159090909090909075,0,0
PPG,20090804,0.159090909090909075,0.159090909090909075,0.159090909090909075,0.159090909090909075,0,0
PPG,20090805,0.159090909090909075,0.159090909090909075,0.159090909090909075,0.159090909090909075,0,0
PPG,20090806,0.159090909090909075,0.159090909090909075,0.159090909090909075,0.159090909090909075,0,0
PPG,20090807,0.159090909090909075,0.159090909090909075,0.159090909090909075,0.159090909090909075,0,0
PPG,20090810,0.13636363636363635,0.13636363636363635,0.13636363636363635,0.13636363636363635,8000,0
PPG,20090811,0.13636363636363635,0.13636363636363635,0.13636363636363635,0.13636363636363635,0,0
PPG,20090812,0.14545454545454544,0.14545454545454544,0.13636363636363635,0.13636363636363635,102638,0
PPG,20090813,0.13636363636363635,0.13636363636363635,0.13636363636363635,0.13636363636363635,0,0
PPG,20090814,0.13636363636363635,0.13636363636363635,0.13636363636363635,0.13636363636363635,18700,0
PPG,20090817,0.13636363636363635,0.13636363636363635,0.13636363636363635,0.13636363636363635,0,0
PPG,20090818,0.13636363636363635,0.13636363636363635,0.13636363636363635,0.13636363636363635,0,0
PPG,20090819,0.13636363636363635,0.13636363636363635,0.13636363636363635,0.13636363636363635,0,0
PPG,20090820,0.13636363636363635,0.13636363636363635,0.13636363636363635,0.13636363636363635,0,0
PPG,20090821,0.13636363636363635,0.13636363636363635,0.13636363636363635,0.13636363636363635,0,0
PPG,20090824,0.13636363636363635,0.13636363636363635,0.13636363636363635,0.13636363636363635,0,0
PPG,20090825,0.13636363636363635,0.13636363636363635,0.13636363636363635,0.13636363636363635,0,0
PPG,20090826,0.13636363636363635,0.13636363636363635,0.13636363636363635,0.13636363636363635,0,0
PPG,20090827,0.13636363636363635,0.13636363636363635,0.13636363636363635,0.13636363636363635,0,0
PPG,20090828,0.13636363636363635,0.13636363636363635,0.13636363636363635,0.13636363636363635,0,0
PPG,20090831,0.13636363636363635,0.13636363636363635,0.13636363636363635,0.13636363636363635,0,0
PPG,20090901,0.13636363636363635,0.13636363636363635,0.13636363636363635,0.13636363636363635,0,0
PPG,20090902,0.13636363636363635,0.13636363636363635,0.13636363636363635,0.13636363636363635,0,0
PPG,20090903,0.168181818181818165,0.168181818181818165,0.13636363636363635,0.13636363636363635,31000,0
PPG,20090904,0.13636363636363635,0.13636363636363635,0.13636363636363635,0.13636363636363635,0,0
PPG,20090907,0.13636363636363635,0.13636363636363635,0.13636363636363635,0.13636363636363635,0,0
PPG,20090908,0.13636363636363635,0.13636363636363635,0.13636363636363635,0.13636363636363635,0,0
PPG,20090909,0.15454545454545453,0.15454545454545453,0.15454545454545453,0.15454545454545453,15000,0
PPG,20090910,0.15454545454545453,0.15454545454545453,0.15454545454545453,0.15454545454545453,0,0
PPG,20090911,0.15454545454545453,0.15454545454545453,0.15454545454545453,0.15454545454545453,0,0
PPG,20090914,0.15454545454545453,0.15454545454545453,0.15454545454545453,0.15454545454545453,0,0
PPG,20090915,0.15454545454545453,0.15454545454545453,0.15454545454545453,0.15454545454545453,0,0
PPG,20090916,0.15454545454545453,0.15454545454545453,0.15454545454545453,0.15454545454545453,0,0
PPG,20090917,0.140909090909090895,0.140909090909090895,0.140909090909090895,0.140909090909090895,7500,0
PPG,20090918,0.149999999999999985,0.149999999999999985,0.149999999999999985,0.149999999999999985,20000,0
PPG,20090921,0.149999999999999985,0.149999999999999985,0.149999999999999985,0.149999999999999985,0,0
PPG,20090922,0.149999999999999985,0.149999999999999985,0.149999999999999985,0.149999999999999985,6000,0
PPG,20090923,0.149999999999999985,0.149999999999999985,0.149999999999999985,0.149999999999999985,0,0
PPG,20090924,0.149999999999999985,0.149999999999999985,0.149999999999999985,0.149999999999999985,0,0
PPG,20090925,0.149999999999999985,0.149999999999999985,0.149999999999999985,0.149999999999999985,0,0
PPG,20090928,0.149999999999999985,0.149999999999999985,0.149999999999999985,0.149999999999999985,0,0
PPG,20090929,0.149999999999999985,0.149999999999999985,0.149999999999999985,0.149999999999999985,0,0
PPG,20090930,0.149999999999999985,0.149999999999999985,0.149999999999999985,0.149999999999999985,0,0
PPG,20091001,0.159090909090909075,0.159090909090909075,0.159090909090909075,0.159090909090909075,3500,0
PPG,20091002,0.159090909090909075,0.159090909090909075,0.159090909090909075,0.159090909090909075,0,0
PPG,20091005,0.159090909090909075,0.159090909090909075,0.159090909090909075,0.159090909090909075,0,0
PPG,20091006,0.149999999999999985,0.149999999999999985,0.149999999999999985,0.149999999999999985,6000,0
PPG,20091007,0.149999999999999985,0.149999999999999985,0.149999999999999985,0.149999999999999985,0,0
PPG,20091008,0.159090909090909075,0.159090909090909075,0.159090909090909075,0.159090909090909075,3000,0
PPG,20091009,0.159090909090909075,0.159090909090909075,0.159090909090909075,0.159090909090909075,0,0
PPG,20091012,0.159090909090909075,0.159090909090909075,0.159090909090909075,0.159090909090909075,0,0
PPG,20091013,0.14545454545454544,0.14545454545454544,0.14545454545454544,0.14545454545454544,91000,0
PPG,20091014,0.14545454545454544,0.14545454545454544,0.14545454545454544,0.14545454545454544,0,0
PPG,20091015,0.159090909090909075,0.159090909090909075,0.159090909090909075,0.159090909090909075,8000,0
PPG,20091016,0.159090909090909075,0.159090909090909075,0.159090909090909075,0.159090909090909075,10500,0
PPG,20091019,0.16363636363636362,0.16363636363636362,0.16363636363636362,0.16363636363636362,40000,0
PPG,20091020,0.16363636363636362,0.16363636363636362,0.16363636363636362,0.16363636363636362,0,0
PPG,20091021,0.16363636363636362,0.16363636363636362,0.16363636363636362,0.16363636363636362,7111,0
PPG,20091022,0.168181818181818165,0.168181818181818165,0.168181818181818165,0.168181818181818165,20000,0
PPG,20091023,0.1818181818181818,0.1818181818181818,0.1818181818181818,0.1818181818181818,14000,0
PPG,20091026,0.1818181818181818,0.1818181818181818,0.1818181818181818,0.1818181818181818,62075,0
PPG,20091027,0.1818181818181818,0.1818181818181818,0.1818181818181818,0.1818181818181818,0,0
PPG,20091028,0.1818181818181818,0.1818181818181818,0.1818181818181818,0.1818181818181818,0,0
PPG,20091029,0.1818181818181818,0.1818181818181818,0.1818181818181818,0.1818181818181818,0,0
PPG,20091030,0.19090909090909089,0.19999999999999998,0.19090909090909089,0.19999999999999998,19833,0
PPG,20091102,0.19999999999999998,0.19999999999999998,0.19999999999999998,0.19999999999999998,10000,0
PPG,20091103,0.21818181818181816,0.21818181818181816,0.21818181818181816,0.21818181818181816,2100,0
PPG,20091104,0.20909090909090907,0.20909090909090907,0.20909090909090907,0.20909090909090907,4141,0
PPG,20091105,0.20909090909090907,0.20909090909090907,0.20909090909090907,0.20909090909090907,0,0
PPG,20091106,0.20909090909090907,0.20909090909090907,0.20909090909090907,0.20909090909090907,0,0
PPG,20091109,0.22727272727272725,0.22727272727272725,0.22727272727272725,0.22727272727272725,50000,0
PPG,20091110,0.24545454545454543,0.25454545454545452,0.24545454545454543,0.25454545454545452,84000,0
PPG,20091111,0.25454545454545452,0.25454545454545452,0.25454545454545452,0.25454545454545452,0,0
PPG,20091112,0.25454545454545452,0.25454545454545452,0.25454545454545452,0.25454545454545452,4525,0
PPG,20091113,0.25454545454545452,0.25454545454545452,0.25454545454545452,0.25454545454545452,7407,0
PPG,20091116,0.25454545454545452,0.25454545454545452,0.25454545454545452,0.25454545454545452,0,0
PPG,20091117,0.25454545454545452,0.25454545454545452,0.25454545454545452,0.25454545454545452,0,0
PPG,20091118,0.25454545454545452,0.25454545454545452,0.25454545454545452,0.25454545454545452,0,0
PPG,20091119,0.25454545454545452,0.25454545454545452,0.25454545454545452,0.25454545454545452,0,0
PPG,20091120,0.25454545454545452,0.25454545454545452,0.25454545454545452,0.25454545454545452,0,0
PPG,20091123,0.25454545454545452,0.25454545454545452,0.25454545454545452,0.25454545454545452,0,0
PPG,20091124,0.25454545454545452,0.25454545454545452,0.25454545454545452,0.25454545454545452,0,0
PPG,20091125,0.25454545454545452,0.25454545454545452,0.25454545454545452,0.25454545454545452,0,0
PPG,20091126,0.25454545454545452,0.25454545454545452,0.25454545454545452,0.25454545454545452,0,0
